,f1-score,precision,recall,support
te03-0024,0.8636363636363636,0.9047619047619048,0.8260869565217391,23.0
te03-0031,0.8,0.8421052631578947,0.7619047619047619,21.0
te03-0032,0.8205128205128205,0.6956521739130435,1.0,16.0
te03-0037,0.8085106382978724,0.8260869565217391,0.7916666666666666,24.0
te03-0041,0.9142857142857143,0.9411764705882353,0.8888888888888888,18.0
te03-0046,0.9743589743589743,1.0,0.95,20.0
te03-0048,0.7272727272727274,0.8888888888888888,0.6153846153846154,13.0
te03-0050,0.9411764705882353,0.8888888888888888,1.0,24.0
te03-0054,0.8979591836734694,0.88,0.9166666666666666,24.0
te03-0062,0.9387755102040817,0.92,0.9583333333333334,24.0
te03-0076,0.8301886792452831,0.7333333333333333,0.9565217391304348,23.0
te03-0080,0.9473684210526315,0.9473684210526315,0.9473684210526315,19.0
te03-0088,0.846153846153846,0.7333333333333333,1.0,22.0
te03-0091,0.6470588235294117,0.7333333333333333,0.5789473684210527,19.0
te03-0104,0.8717948717948718,0.8095238095238095,0.9444444444444444,18.0
te03-0106,1.0,1.0,1.0,20.0
te03-0112,0.8235294117647058,0.9333333333333333,0.7368421052631579,19.0
te03-0125,0.7741935483870968,0.8571428571428571,0.7058823529411765,17.0
te03-0132,0.8205128205128205,0.8888888888888888,0.7619047619047619,21.0
te03-0137,0.918918918918919,0.9444444444444444,0.8947368421052632,19.0
te03-0145,0.4444444444444444,0.6153846153846154,0.34782608695652173,23.0
te03-0162,0.9787234042553191,1.0,0.9583333333333334,24.0
te03-0193,0.8125,0.8666666666666667,0.7647058823529411,17.0
te03-0195,0.8148148148148148,0.8461538461538461,0.7857142857142857,14.0
te03-0211,0.9056603773584906,0.8275862068965517,1.0,24.0
te03-0213,0.75,0.65625,0.875,24.0
te03-0221,0.8,0.7692307692307693,0.8333333333333334,24.0
te03-0225,0.9285714285714286,0.8666666666666667,1.0,13.0
te03-0230,0.9199999999999999,0.8846153846153846,0.9583333333333334,24.0
te03-0231,0.9565217391304348,1.0,0.9166666666666666,12.0
te03-0240,0.9411764705882353,0.8888888888888888,1.0,16.0
te03-0276,0.923076923076923,0.8571428571428571,1.0,24.0
te03-0286,0.8727272727272727,0.7741935483870968,1.0,24.0
te03-0293,0.8333333333333333,0.9090909090909091,0.7692307692307693,13.0
te03-0313,0.6285714285714286,0.6875,0.5789473684210527,19.0
te03-0317,0.5,1.0,0.3333333333333333,12.0
te03-0324,0.9032258064516129,0.8235294117647058,1.0,14.0
te03-0335,0.8205128205128205,0.8421052631578947,0.8,20.0
te03-0368,0.8571428571428571,1.0,0.75,16.0
te03-0371,0.7142857142857143,0.625,0.8333333333333334,18.0
te03-0383,0.7272727272727273,1.0,0.5714285714285714,14.0
te03-0407,1.0,1.0,1.0,18.0
te03-0416,0.9500000000000001,0.95,0.95,20.0
te03-0422,0.8947368421052632,0.9444444444444444,0.85,20.0
te03-0436,0.967741935483871,0.9375,1.0,15.0
te03-0440,0.9583333333333334,0.92,1.0,23.0
te03-0441,0.8181818181818182,0.782608695652174,0.8571428571428571,21.0
te03-0445,0.41379310344827586,0.8571428571428571,0.2727272727272727,22.0
te03-0460,0.8510638297872342,0.8,0.9090909090909091,22.0
te03-0466,0.8936170212765957,0.9130434782608695,0.875,24.0
te03-0475,0.7272727272727272,0.6666666666666666,0.8,20.0
te03-0480,0.8,0.7692307692307693,0.8333333333333334,24.0
te03-0491,1.0,1.0,1.0,14.0
te03-0492,0.8695652173913043,0.8695652173913043,0.8695652173913043,23.0
te03-0496,1.0,1.0,1.0,20.0
te03-0499,0.8372093023255813,0.72,1.0,18.0
te03-0505,0.761904761904762,0.8888888888888888,0.6666666666666666,12.0
te03-0513,0.875,0.8076923076923077,0.9545454545454546,22.0
te03-0524,0.6428571428571429,0.75,0.5625,16.0
te03-0525,0.7000000000000001,1.0,0.5384615384615384,13.0
te03-0552,0.9090909090909091,0.9090909090909091,0.9090909090909091,22.0
te03-0577,0.7894736842105262,0.8333333333333334,0.75,20.0
te03-0586,0.967741935483871,1.0,0.9375,16.0
te03-0593,0.9047619047619048,0.8636363636363636,0.95,20.0
te03-0603,1.0,1.0,1.0,24.0
te03-0604,0.9387755102040817,0.92,0.9583333333333334,24.0
te03-0608,0.8363636363636364,0.7419354838709677,0.9583333333333334,24.0
te03-0611,0.875,0.875,0.875,24.0
te03-0616,0.9411764705882353,0.8888888888888888,1.0,24.0
te03-0620,0.8421052631578948,0.8,0.8888888888888888,18.0
te03-0621,0.9473684210526316,0.9,1.0,18.0
te03-0632,0.9285714285714286,0.9285714285714286,0.9285714285714286,14.0
te03-0660,0.8,0.7619047619047619,0.8421052631578947,19.0
te03-0676,0.8727272727272727,0.7741935483870968,1.0,24.0
te03-0704,1.0,1.0,1.0,16.0
te03-0717,1.0,1.0,1.0,15.0
te03-0730,0.9777777777777777,1.0,0.9565217391304348,23.0
te03-0747,1.0,1.0,1.0,17.0
te03-0750,0.9411764705882353,0.8888888888888888,1.0,16.0
te03-0776,0.5925925925925926,1.0,0.42105263157894735,19.0
te03-0782,0.9361702127659575,0.88,1.0,22.0
te03-0798,0.7727272727272727,0.8095238095238095,0.7391304347826086,23.0
te03-0800,0.9500000000000001,0.9047619047619048,1.0,19.0
te03-0805,0.7741935483870968,0.8571428571428571,0.7058823529411765,17.0
te03-0811,0.9500000000000001,0.95,0.95,20.0
te03-0819,0.5957446808510638,0.5,0.7368421052631579,19.0
te03-0839,0.896551724137931,0.8125,1.0,13.0
te03-0848,0.9056603773584906,0.8275862068965517,1.0,24.0
te03-0856,0.9523809523809523,0.9090909090909091,1.0,20.0
te03-0864,0.7272727272727273,0.8571428571428571,0.631578947368421,19.0
te03-0880,0.8571428571428572,0.7777777777777778,0.9545454545454546,22.0
te03-0889,0.9583333333333334,0.9583333333333334,0.9583333333333334,24.0
te03-0892,0.8727272727272727,0.7741935483870968,1.0,24.0
te03-0910,1.0,1.0,1.0,21.0
te03-0927,0.9333333333333333,0.875,1.0,21.0
te03-0936,0.7222222222222223,0.8125,0.65,20.0
te03-0944,0.8518518518518519,0.7666666666666667,0.9583333333333334,24.0
te03-0948,0.5853658536585366,0.7058823529411765,0.5,24.0
te03-0950,0.9545454545454545,0.9130434782608695,1.0,21.0
te03-0954,0.7333333333333333,0.7333333333333333,0.7333333333333333,15.0
te03-0960,0.8979591836734695,0.8461538461538461,0.9565217391304348,23.0
te03-0975,0.85,0.9444444444444444,0.7727272727272727,22.0
te03-0978,0.8823529411764706,1.0,0.7894736842105263,19.0
te03-0980,0.8666666666666666,0.7647058823529411,1.0,13.0
te03-1007,0.8780487804878048,0.8571428571428571,0.9,20.0
te03-1016,0.8571428571428572,0.7777777777777778,0.9545454545454546,22.0
te03-1025,0.9333333333333333,0.875,1.0,14.0
te03-1039,0.9600000000000001,0.9230769230769231,1.0,12.0
te03-1051,0.9743589743589743,0.95,1.0,19.0
te03-1055,0.8372093023255813,0.72,1.0,18.0
te03-1059,0.8727272727272727,0.7741935483870968,1.0,24.0
te03-1067,0.9600000000000001,0.9230769230769231,1.0,24.0
te03-1072,0.8275862068965517,0.7058823529411765,1.0,24.0
te03-1079,0.9600000000000001,0.9230769230769231,1.0,24.0
te03-1086,0.8214285714285715,0.696969696969697,1.0,23.0
te03-1093,0.8571428571428571,1.0,0.75,20.0
te03-1098,0.3571428571428571,1.0,0.21739130434782608,23.0
te03-1104,0.888888888888889,0.8571428571428571,0.9230769230769231,13.0
te03-1105,0.6,0.42857142857142855,1.0,24.0
te03-1109,0.8979591836734695,0.8461538461538461,0.9565217391304348,23.0
te03-1110,0.851063829787234,0.8695652173913043,0.8333333333333334,24.0
te03-1118,0.7804878048780488,0.7619047619047619,0.8,20.0
te03-1133,1.0,1.0,1.0,19.0
te03-1156,0.9090909090909091,0.9090909090909091,0.9090909090909091,22.0
te03-1213,0.6333333333333333,0.5277777777777778,0.7916666666666666,24.0
te03-1230,0.8780487804878048,0.8571428571428571,0.9,20.0
te03-1291,0.9375,1.0,0.8823529411764706,17.0
te03-1308,0.8333333333333334,0.8333333333333334,0.8333333333333334,18.0
te03-1318,0.9047619047619047,0.8260869565217391,1.0,19.0
te03-1320,0.7647058823529413,0.8666666666666667,0.6842105263157895,19.0
te03-1325,0.923076923076923,0.8571428571428571,1.0,24.0
te03-1330,0.923076923076923,0.8571428571428571,1.0,24.0
te03-1334,0.9795918367346939,0.96,1.0,24.0
te03-1342,0.9655172413793104,1.0,0.9333333333333333,15.0
te03-1347,0.9565217391304348,0.9166666666666666,1.0,22.0
te03-1348,0.9743589743589743,0.95,1.0,19.0
te03-1364,0.88,1.0,0.7857142857142857,14.0
te03-1365,0.9777777777777777,0.9565217391304348,1.0,22.0
te03-1372,0.9166666666666666,0.9166666666666666,0.9166666666666666,24.0
te03-1377,0.7567567567567567,0.8235294117647058,0.7,20.0
te03-1380,0.88,0.7857142857142857,1.0,22.0
te03-1398,0.9056603773584906,0.8275862068965517,1.0,24.0
te03-1400,0.17391304347826084,1.0,0.09523809523809523,21.0
te04-0012,0.7777777777777777,0.875,0.7,20.0
te04-0037,0.7931034482758621,0.6764705882352942,0.9583333333333334,24.0
te04-0080,0.9142857142857143,0.9411764705882353,0.8888888888888888,18.0
te04-0092,0.9,0.8571428571428571,0.9473684210526315,19.0
te04-0101,0.6060606060606061,0.7692307692307693,0.5,20.0
te04-0102,0.8333333333333333,0.7894736842105263,0.8823529411764706,17.0
te04-0103,0.9600000000000001,0.9230769230769231,1.0,24.0
te04-0107,0.7111111111111111,0.7619047619047619,0.6666666666666666,24.0
te04-0125,0.9189189189189189,1.0,0.85,20.0
te04-0130,0.8333333333333333,0.9090909090909091,0.7692307692307693,13.0
te04-0141,1.0,1.0,1.0,21.0
te04-0149,0.8749999999999999,0.84,0.9130434782608695,23.0
te04-0153,0.92,0.8518518518518519,1.0,23.0
te04-0154,1.0,1.0,1.0,14.0
te04-0172,0.8979591836734695,0.8461538461538461,0.9565217391304348,23.0
te04-0203,0.6428571428571429,0.75,0.5625,16.0
te04-0215,0.9600000000000001,0.9230769230769231,1.0,24.0
te04-0234,0.9230769230769231,0.9230769230769231,0.9230769230769231,13.0
te04-0241,0.8571428571428571,0.75,1.0,24.0
te04-0253,0.9333333333333333,0.875,1.0,14.0
te04-0268,0.7000000000000001,0.875,0.5833333333333334,24.0
te04-0272,0.7,0.7,0.7,20.0
te04-0280,0.8947368421052632,0.9444444444444444,0.85,20.0
te04-0303,0.9333333333333333,1.0,0.875,16.0
te04-0329,0.9333333333333333,0.875,1.0,21.0
te04-0346,0.5945945945945946,0.7857142857142857,0.4782608695652174,23.0
te04-0350,0.9473684210526316,0.9,1.0,18.0
te04-0353,0.7499999999999999,1.0,0.6,20.0
te04-0361,1.0,1.0,1.0,20.0
te04-0367,0.6976744186046512,0.75,0.6521739130434783,23.0
te04-0373,0.8333333333333334,0.7407407407407407,0.9523809523809523,21.0
te04-0378,0.8,0.8333333333333334,0.7692307692307693,13.0
te04-0384,0.8799999999999999,0.8461538461538461,0.9166666666666666,24.0
te04-0395,0.5517241379310345,1.0,0.38095238095238093,21.0
te04-0398,0.8947368421052632,1.0,0.8095238095238095,21.0
te04-0416,0.8979591836734693,0.8148148148148148,1.0,22.0
te04-0424,0.8292682926829269,0.8095238095238095,0.85,20.0
te04-0449,0.3870967741935483,0.5454545454545454,0.3,20.0
te04-0467,0.8444444444444444,0.7916666666666666,0.9047619047619048,21.0
te04-0477,0.6666666666666666,0.7142857142857143,0.625,24.0
te04-0479,0.8727272727272727,0.7741935483870968,1.0,24.0
te04-0483,0.84,0.7777777777777778,0.9130434782608695,23.0
te04-0487,0.8095238095238095,0.7391304347826086,0.8947368421052632,19.0
te04-0489,0.8717948717948718,0.8095238095238095,0.9444444444444444,18.0
te04-0496,0.8076923076923077,0.7,0.9545454545454546,22.0
te04-0497,0.8333333333333334,0.8333333333333334,0.8333333333333334,18.0
te04-0510,0.9056603773584906,0.8275862068965517,1.0,24.0
te04-0521,0.9523809523809523,0.9090909090909091,1.0,20.0
te04-0529,0.7391304347826089,0.68,0.8095238095238095,21.0
te04-0543,0.8571428571428571,0.8333333333333334,0.8823529411764706,17.0
te04-0574,0.7272727272727272,0.8,0.6666666666666666,18.0
te04-0581,0.8333333333333333,1.0,0.7142857142857143,21.0
te04-0582,0.6229508196721311,0.5135135135135135,0.7916666666666666,24.0
te04-0596,1.0,1.0,1.0,19.0
te04-0602,0.9090909090909091,0.8333333333333334,1.0,20.0
te04-0624,0.4444444444444444,0.8571428571428571,0.3,20.0
te04-0641,0.8679245283018867,0.7931034482758621,0.9583333333333334,24.0
te04-0651,0.9500000000000001,0.9047619047619048,1.0,19.0
te04-0664,1.0,1.0,1.0,19.0
te04-0665,0.9583333333333334,0.9583333333333334,0.9583333333333334,24.0
te04-0669,0.8333333333333333,0.8823529411764706,0.7894736842105263,19.0
te04-0677,0.975609756097561,0.9523809523809523,1.0,20.0
te04-0697,0.9787234042553191,1.0,0.9583333333333334,24.0
te04-0707,0.9523809523809523,0.9090909090909091,1.0,20.0
te04-0721,0.8260869565217392,0.7307692307692307,0.95,20.0
te04-0729,0.9090909090909091,0.8823529411764706,0.9375,16.0
te04-0753,0.9600000000000001,1.0,0.9230769230769231,13.0
te04-0761,0.8571428571428572,0.7894736842105263,0.9375,16.0
te04-0775,0.9019607843137255,0.8214285714285714,1.0,23.0
te04-0779,0.7647058823529412,0.9285714285714286,0.65,20.0
te04-0797,0.8387096774193549,0.7647058823529411,0.9285714285714286,14.0
te04-0811,0.9600000000000001,1.0,0.9230769230769231,13.0
te04-0813,0.9166666666666666,1.0,0.8461538461538461,13.0
te04-0827,0.3846153846153846,0.7142857142857143,0.2631578947368421,19.0
te04-0832,0.6153846153846153,0.8888888888888888,0.47058823529411764,17.0
te04-0838,0.846153846153846,0.7333333333333333,1.0,22.0
te04-0842,0.8125000000000001,1.0,0.6842105263157895,19.0
te04-0845,0.8823529411764706,0.8823529411764706,0.8823529411764706,17.0
te04-0849,0.6666666666666666,0.7368421052631579,0.6086956521739131,23.0
te04-0857,0.9387755102040816,0.8846153846153846,1.0,23.0
te04-0885,0.5625,1.0,0.391304347826087,23.0
te04-0889,0.7027027027027025,0.9285714285714286,0.5652173913043478,23.0
te04-0895,0.7741935483870968,0.631578947368421,1.0,24.0
te04-0897,0.9199999999999999,0.8846153846153846,0.9583333333333334,24.0
te04-0899,0.65,0.7647058823529411,0.5652173913043478,23.0
te04-0901,0.9795918367346939,0.96,1.0,24.0
te04-0906,0.8571428571428571,0.8571428571428571,0.8571428571428571,14.0
te04-0932,0.7555555555555555,0.7727272727272727,0.7391304347826086,23.0
te04-0953,0.7692307692307692,0.7142857142857143,0.8333333333333334,18.0
te04-0962,0.830188679245283,0.7586206896551724,0.9166666666666666,24.0
te04-0970,0.3636363636363636,1.0,0.2222222222222222,18.0
te04-0976,0.888888888888889,0.9230769230769231,0.8571428571428571,14.0
te04-0990,0.923076923076923,0.8571428571428571,1.0,24.0
te04-0992,0.34285714285714286,0.375,0.3157894736842105,19.0
te04-1018,1.0,1.0,1.0,24.0
te04-1031,0.896551724137931,0.9285714285714286,0.8666666666666667,15.0
te04-1035,1.0,1.0,1.0,21.0
te04-1046,0.7878787878787877,0.7222222222222222,0.8666666666666667,15.0
te04-1047,0.9387755102040817,0.92,0.9583333333333334,24.0
te04-1065,0.9500000000000001,0.95,0.95,20.0
te04-1118,0.717948717948718,0.875,0.6086956521739131,23.0
te04-1130,0.8500000000000001,0.8095238095238095,0.8947368421052632,19.0
te05-0038,0.9333333333333332,0.9130434782608695,0.9545454545454546,22.0
te05-0043,0.8333333333333333,1.0,0.7142857142857143,14.0
te05-0073,0.8727272727272727,0.7741935483870968,1.0,24.0
te05-0082,0.8571428571428572,0.84,0.875,24.0
te05-0088,0.8717948717948718,1.0,0.7727272727272727,22.0
te05-0108,0.9166666666666666,1.0,0.8461538461538461,13.0
te05-0126,0.9130434782608695,0.9545454545454546,0.875,24.0
te05-0130,0.8979591836734694,0.88,0.9166666666666666,24.0
te05-0131,1.0,1.0,1.0,15.0
te05-0151,0.9268292682926829,0.9047619047619048,0.95,20.0
te05-0165,0.4324324324324324,0.5714285714285714,0.34782608695652173,23.0
te05-0173,0.7272727272727272,0.7619047619047619,0.6956521739130435,23.0
te05-0177,1.0,1.0,1.0,23.0
te05-0194,0.896551724137931,0.8125,1.0,13.0
te05-0209,0.9,0.9473684210526315,0.8571428571428571,21.0
te05-0255,0.6666666666666666,0.5517241379310345,0.8421052631578947,19.0
te05-0271,0.5263157894736842,0.7142857142857143,0.4166666666666667,24.0
te05-0280,0.9166666666666666,0.9166666666666666,0.9166666666666666,24.0
te05-0283,0.8679245283018867,0.7931034482758621,0.9583333333333334,24.0
te05-0290,0.9333333333333333,0.9333333333333333,0.9333333333333333,15.0
te05-0314,0.9600000000000001,0.9230769230769231,1.0,24.0
te05-0339,0.9600000000000001,0.9230769230769231,1.0,24.0
te05-0347,0.816326530612245,0.8,0.8333333333333334,24.0
te05-0351,0.9361702127659574,0.9565217391304348,0.9166666666666666,24.0
te05-0365,0.8799999999999999,0.8461538461538461,0.9166666666666666,24.0
te05-0369,0.9600000000000001,0.9230769230769231,1.0,24.0
te05-0402,0.6296296296296297,0.5666666666666667,0.7083333333333334,24.0
te05-0421,0.7272727272727272,0.8,0.6666666666666666,18.0
te05-0430,0.9473684210526315,0.9473684210526315,0.9473684210526315,19.0
te05-0433,0.6111111111111113,0.6470588235294118,0.5789473684210527,19.0
te05-0450,1.0,1.0,1.0,21.0
te05-0451,0.9600000000000001,0.9230769230769231,1.0,24.0
te05-0457,0.5555555555555556,0.8333333333333334,0.4166666666666667,24.0
te05-0473,0.9361702127659574,0.9565217391304348,0.9166666666666666,24.0
te05-0518,0.6666666666666667,0.8666666666666667,0.5416666666666666,24.0
te05-0540,0.909090909090909,0.8695652173913043,0.9523809523809523,21.0
te05-0541,0.6341463414634148,0.6842105263157895,0.5909090909090909,22.0
te05-0551,0.9019607843137256,0.8518518518518519,0.9583333333333334,24.0
te05-0555,0.8936170212765957,0.9130434782608695,0.875,24.0
te05-0567,0.7222222222222223,0.8125,0.65,20.0
te05-0571,0.9565217391304348,0.9166666666666666,1.0,22.0
te05-0584,0.9655172413793104,0.9333333333333333,1.0,14.0
te05-0606,0.7368421052631579,0.6176470588235294,0.9130434782608695,23.0
te05-0616,0.92,0.8518518518518519,1.0,23.0
te05-0626,0.5,0.75,0.375,24.0
te05-0628,0.7906976744186046,0.8947368421052632,0.7083333333333334,24.0
te05-0658,0.8823529411764706,0.9375,0.8333333333333334,18.0
te05-0660,0.9411764705882353,0.8888888888888888,1.0,24.0
te05-0661,0.8,0.7692307692307693,0.8333333333333334,24.0
te05-0684,1.0,1.0,1.0,20.0
te05-0693,1.0,1.0,1.0,21.0
te05-0695,0.923076923076923,0.8571428571428571,1.0,18.0
te05-0697,0.9777777777777777,1.0,0.9565217391304348,23.0
te05-0700,0.923076923076923,0.8571428571428571,1.0,24.0
te05-0708,1.0,1.0,1.0,15.0
te05-0717,0.9565217391304348,0.9166666666666666,1.0,22.0
te05-0722,0.7826086956521738,0.8181818181818182,0.75,24.0
te05-0731,0.6874999999999999,0.9166666666666666,0.55,20.0
te05-0740,0.7777777777777778,0.9333333333333333,0.6666666666666666,21.0
te05-0747,0.9565217391304348,0.9166666666666666,1.0,22.0
te05-0786,0.9387755102040817,0.92,0.9583333333333334,24.0
te05-0804,1.0,1.0,1.0,24.0
te05-0810,0.8275862068965517,1.0,0.7058823529411765,17.0
te05-0830,0.8627450980392156,0.7586206896551724,1.0,22.0
te05-0832,0.8181818181818182,0.9,0.75,24.0
te05-0842,0.8750000000000001,1.0,0.7777777777777778,18.0
te05-0862,1.0,1.0,1.0,24.0
te05-0886,0.962962962962963,1.0,0.9285714285714286,14.0
te05-0887,0.625,0.7692307692307693,0.5263157894736842,19.0
te05-0901,1.0,1.0,1.0,24.0
te05-0908,0.9047619047619048,0.8636363636363636,0.95,20.0
te05-0922,0.5882352941176471,1.0,0.4166666666666667,24.0
te05-0942,0.8387096774193549,0.9285714285714286,0.7647058823529411,17.0
te05-0953,1.0,1.0,1.0,13.0
te05-0997,0.888888888888889,0.8,1.0,24.0
te05-0998,1.0,1.0,1.0,24.0
te05-1001,0.9795918367346939,0.96,1.0,24.0
te05-1016,0.7692307692307692,0.8333333333333334,0.7142857142857143,21.0
te05-1019,0.846153846153846,1.0,0.7333333333333333,15.0
te05-1036,0.8461538461538461,0.7857142857142857,0.9166666666666666,24.0
te05-1038,0.9019607843137255,0.8214285714285714,1.0,23.0
te05-1044,0.8888888888888888,0.8888888888888888,0.8888888888888888,18.0
te05-1049,0.875,0.875,0.875,24.0
te05-1062,0.8695652173913043,0.9090909090909091,0.8333333333333334,24.0
te05-1069,0.7692307692307693,0.9375,0.6521739130434783,23.0
te05-1073,0.8571428571428572,0.9,0.8181818181818182,22.0
te05-1075,0.6818181818181819,0.6,0.7894736842105263,19.0
te05-1079,0.9090909090909091,0.9090909090909091,0.9090909090909091,22.0
te05-1087,0.7567567567567567,0.8235294117647058,0.7,20.0
te05-1124,0.9714285714285714,0.9444444444444444,1.0,17.0
te05-1141,0.9714285714285714,0.9444444444444444,1.0,17.0
te05-1143,0.9795918367346939,0.96,1.0,24.0
te05-1155,0.8627450980392156,0.8148148148148148,0.9166666666666666,24.0
te05-1164,0.7999999999999999,0.7096774193548387,0.9166666666666666,24.0
te05-1204,0.8717948717948718,0.9444444444444444,0.8095238095238095,21.0
te05-1246,0.9361702127659574,0.9166666666666666,0.9565217391304348,23.0
te05-1249,0.9302325581395349,0.9090909090909091,0.9523809523809523,21.0
te05-1251,0.8400000000000001,0.8076923076923077,0.875,24.0
te05-1254,0.7741935483870968,0.8571428571428571,0.7058823529411765,17.0
te05-1267,0.8727272727272727,0.7741935483870968,1.0,24.0
te05-1281,0.5882352941176471,1.0,0.4166666666666667,12.0
te05-1296,0.9714285714285714,1.0,0.9444444444444444,18.0
te05-1331,1.0,1.0,1.0,22.0
te05-1334,0.68,0.5862068965517241,0.8095238095238095,21.0
te05-1335,0.8260869565217391,0.8636363636363636,0.7916666666666666,24.0
te05-1352,0.85,1.0,0.7391304347826086,23.0
te05-1378,0.9,0.9473684210526315,0.8571428571428571,21.0
te05-1380,0.923076923076923,0.8571428571428571,1.0,24.0
te05-1390,0.9285714285714286,0.9285714285714286,0.9285714285714286,14.0
te05-1416,0.9090909090909091,1.0,0.8333333333333334,18.0
te05-1420,0.888888888888889,0.8571428571428571,0.9230769230769231,13.0
te05-1421,0.923076923076923,0.8571428571428571,1.0,24.0
te05-1427,0.8695652173913043,0.9090909090909091,0.8333333333333334,24.0
te05-1436,0.8372093023255814,0.782608695652174,0.9,20.0
te05-1439,0.8979591836734694,0.88,0.9166666666666666,24.0
te05-1470,0.8823529411764706,0.9375,0.8333333333333334,18.0
te05-1484,0.9655172413793104,1.0,0.9333333333333333,15.0
te05-1495,0.9019607843137256,0.8518518518518519,0.9583333333333334,24.0
te05-1500,0.9268292682926829,0.8636363636363636,1.0,19.0
te05-1517,0.923076923076923,0.8571428571428571,1.0,24.0
te05-1525,0.967741935483871,0.9375,1.0,15.0
te05-1529,0.8363636363636364,0.7419354838709677,0.9583333333333334,24.0
te05-1530,0.9166666666666666,0.8461538461538461,1.0,22.0
te05-1544,0.6451612903225806,0.9090909090909091,0.5,20.0
te05-1548,0.8181818181818181,1.0,0.6923076923076923,13.0
te05-1552,0.9795918367346939,0.96,1.0,24.0
te05-1557,0.8750000000000001,0.7777777777777778,1.0,14.0
te05-1559,0.7843137254901961,0.6451612903225806,1.0,20.0
te05-1578,0.8648648648648648,0.9411764705882353,0.8,20.0
te05-1581,0.8484848484848484,1.0,0.7368421052631579,19.0
te05-1587,0.8275862068965517,0.7058823529411765,1.0,24.0
te05-1588,0.8421052631578948,0.7272727272727273,1.0,24.0
te05-1592,0.9361702127659574,0.9565217391304348,0.9166666666666666,24.0
te05-1605,1.0,1.0,1.0,13.0
te05-1621,1.0,1.0,1.0,23.0
te05-1623,0.7999999999999999,0.8888888888888888,0.7272727272727273,22.0
te05-1626,0.9056603773584906,0.8275862068965517,1.0,24.0
te05-1627,0.975609756097561,0.9523809523809523,1.0,20.0
te05-1628,0.8571428571428572,0.84,0.875,24.0
te05-1633,1.0,1.0,1.0,13.0
te05-1634,0.9056603773584906,0.8275862068965517,1.0,24.0
te05-1640,0.9500000000000001,0.95,0.95,20.0
te05-1647,0.8275862068965517,0.9230769230769231,0.75,16.0
te05-1658,0.9795918367346939,0.96,1.0,24.0
te05-1660,0.8666666666666666,1.0,0.7647058823529411,17.0
te05-1665,0.8571428571428571,0.75,1.0,24.0
te05-1667,0.9795918367346939,0.96,1.0,24.0
te05-1680,0.9743589743589743,1.0,0.95,20.0
te05-1685,0.823529411764706,0.875,0.7777777777777778,18.0
te05-1697,0.9166666666666666,0.9166666666666666,0.9166666666666666,24.0
te05-1703,0.923076923076923,0.8571428571428571,1.0,24.0
te05-1724,0.9411764705882353,0.8888888888888888,1.0,24.0
te05-1827,0.8695652173913044,1.0,0.7692307692307693,13.0
te05-1828,0.8260869565217391,0.8636363636363636,0.7916666666666666,24.0
te05-1830,0.8461538461538461,0.7857142857142857,0.9166666666666666,24.0
te06-0001,0.8333333333333333,0.8,0.8695652173913043,23.0
te06-0002,0.5581395348837209,0.6,0.5217391304347826,23.0
te06-0016,0.8846153846153847,0.8214285714285714,0.9583333333333334,24.0
te06-0021,0.7804878048780488,0.8888888888888888,0.6956521739130435,23.0
te06-0031,0.9411764705882353,0.8888888888888888,1.0,24.0
te06-0032,0.9361702127659575,0.88,1.0,22.0
te06-0033,0.9545454545454546,0.9545454545454546,0.9545454545454546,22.0
te06-0034,0.8666666666666666,0.9285714285714286,0.8125,16.0
te06-0038,0.75,0.8823529411764706,0.6521739130434783,23.0
te06-0040,0.816326530612245,0.8,0.8333333333333334,24.0
te06-0045,0.7924528301886793,0.7241379310344828,0.875,24.0
te06-0047,0.923076923076923,0.8571428571428571,1.0,24.0
te06-0067,0.6086956521739131,0.5833333333333334,0.6363636363636364,22.0
te06-0071,0.782608695652174,1.0,0.6428571428571429,14.0
te06-0072,0.6530612244897959,0.64,0.6666666666666666,24.0
te06-0088,0.6382978723404256,0.6,0.6818181818181818,22.0
te06-0105,0.8275862068965517,1.0,0.7058823529411765,17.0
te06-0110,0.9565217391304348,1.0,0.9166666666666666,24.0
te06-0123,0.7169811320754716,0.6551724137931034,0.7916666666666666,24.0
te06-0131,0.9302325581395349,0.9523809523809523,0.9090909090909091,22.0
te06-0143,0.631578947368421,1.0,0.46153846153846156,13.0
te06-0149,0.8571428571428571,0.9230769230769231,0.8,15.0
te06-0179,0.8070175438596493,0.696969696969697,0.9583333333333334,24.0
te06-0208,0.8571428571428571,0.9473684210526315,0.782608695652174,23.0
te06-0209,0.9130434782608695,0.9130434782608695,0.9130434782608695,23.0
te06-0235,0.9696969696969697,0.9411764705882353,1.0,16.0
te06-0237,0.6666666666666667,0.5789473684210527,0.7857142857142857,14.0
te06-0248,0.8666666666666666,1.0,0.7647058823529411,17.0
te06-0252,0.8750000000000001,0.7777777777777778,1.0,14.0
te06-0260,0.888888888888889,0.9090909090909091,0.8695652173913043,23.0
te06-0266,0.8181818181818182,0.8571428571428571,0.782608695652174,23.0
te06-0273,0.9019607843137256,0.8518518518518519,0.9583333333333334,24.0
te06-0287,0.9583333333333334,0.92,1.0,23.0
te06-0293,0.6829268292682926,0.7368421052631579,0.6363636363636364,22.0
te06-0305,0.923076923076923,0.8571428571428571,1.0,24.0
te06-0321,0.7894736842105263,0.7894736842105263,0.7894736842105263,19.0
te06-0338,0.7924528301886793,0.7241379310344828,0.875,24.0
te06-0342,0.8333333333333333,0.8823529411764706,0.7894736842105263,19.0
te06-0357,0.9166666666666666,0.9166666666666666,0.9166666666666666,24.0
te06-0367,0.68,0.6538461538461539,0.7083333333333334,24.0
te06-0396,0.9411764705882353,0.8888888888888888,1.0,24.0
te06-0412,0.9696969696969697,0.9411764705882353,1.0,16.0
te06-0413,0.8571428571428572,0.8076923076923077,0.9130434782608695,23.0
te06-0428,0.5454545454545454,0.6,0.5,12.0
te06-0442,0.6896551724137931,0.9090909090909091,0.5555555555555556,18.0
te06-0445,0.8214285714285714,0.71875,0.9583333333333334,24.0
te06-0455,0.8333333333333333,1.0,0.7142857142857143,14.0
te06-0457,0.888888888888889,0.8695652173913043,0.9090909090909091,22.0
te06-0461,0.7755102040816326,0.76,0.7916666666666666,24.0
te06-0482,0.5405405405405406,0.7692307692307693,0.4166666666666667,24.0
te06-0484,0.8979591836734694,0.88,0.9166666666666666,24.0
te06-0493,0.8,0.8181818181818182,0.782608695652174,23.0
te06-0518,0.9600000000000001,0.9230769230769231,1.0,24.0
te06-0519,0.8461538461538461,0.7586206896551724,0.9565217391304348,23.0
te06-0540,0.8679245283018867,0.7931034482758621,0.9583333333333334,24.0
te06-0543,0.6666666666666666,1.0,0.5,16.0
te06-0546,0.8400000000000001,0.8076923076923077,0.875,24.0
te06-0581,0.8799999999999999,0.8461538461538461,0.9166666666666666,24.0
te06-0585,0.875,0.875,0.875,24.0
te06-0597,0.6956521739130435,0.6666666666666666,0.7272727272727273,22.0
te06-0613,0.9714285714285714,1.0,0.9444444444444444,18.0
te06-0614,0.888888888888889,0.8,1.0,24.0
te06-0623,0.7333333333333334,0.5945945945945946,0.9565217391304348,23.0
te06-0629,0.5945945945945946,0.7857142857142857,0.4782608695652174,23.0
te06-0635,0.9130434782608696,0.84,1.0,21.0
te06-0641,0.9500000000000001,0.95,0.95,20.0
te06-0642,0.76,0.7307692307692307,0.7916666666666666,24.0
te06-0645,0.8979591836734695,0.8461538461538461,0.9565217391304348,23.0
te06-0666,0.9444444444444444,0.8947368421052632,1.0,17.0
te06-0667,0.923076923076923,1.0,0.8571428571428571,21.0
te06-0669,0.7000000000000001,0.875,0.5833333333333334,24.0
te06-0681,0.8,0.6666666666666666,1.0,24.0
te06-0692,0.9019607843137256,0.8518518518518519,0.9583333333333334,24.0
te06-0695,0.9189189189189189,1.0,0.85,20.0
te06-0699,0.962962962962963,1.0,0.9285714285714286,14.0
te06-0717,0.7894736842105262,0.8823529411764706,0.7142857142857143,21.0
te06-0731,0.7391304347826088,0.7083333333333334,0.7727272727272727,22.0
te06-0744,0.9056603773584906,0.8275862068965517,1.0,24.0
te06-0748,0.851063829787234,0.8695652173913043,0.8333333333333334,24.0
te06-0766,0.6428571428571428,0.8181818181818182,0.5294117647058824,17.0
te06-0770,0.9767441860465117,0.9545454545454546,1.0,21.0
te06-0793,0.8400000000000001,0.8076923076923077,0.875,24.0
te06-0796,1.0,1.0,1.0,20.0
te06-0813,0.7317073170731708,0.8823529411764706,0.625,24.0
te06-0816,0.9583333333333334,0.9583333333333334,0.9583333333333334,24.0
te06-0828,0.782608695652174,0.782608695652174,0.782608695652174,23.0
te06-0840,0.9333333333333332,0.9545454545454546,0.9130434782608695,23.0
te06-0848,0.9387755102040817,0.92,0.9583333333333334,24.0
te06-0849,0.9019607843137255,0.8214285714285714,1.0,23.0
te06-0857,0.7450980392156864,0.7037037037037037,0.7916666666666666,24.0
te06-0867,0.6153846153846153,1.0,0.4444444444444444,18.0
te06-0872,0.6341463414634146,0.7647058823529411,0.5416666666666666,24.0
te06-0873,0.8571428571428571,1.0,0.75,24.0
te06-0874,0.8235294117647058,0.7,1.0,21.0
te06-0886,0.8837209302325583,0.95,0.8260869565217391,23.0
te06-0887,0.5384615384615384,0.7777777777777778,0.4117647058823529,17.0
te06-0896,0.6829268292682926,0.6666666666666666,0.7,20.0
te06-1008,0.8444444444444444,0.9047619047619048,0.7916666666666666,24.0
te06-1110,0.9565217391304348,0.9166666666666666,1.0,22.0
te06-1118,1.0,1.0,1.0,16.0
te06-1130,0.8936170212765957,0.9130434782608695,0.875,24.0
te06-1177,0.8695652173913044,1.0,0.7692307692307693,13.0
te07-0006,0.8627450980392156,0.7586206896551724,1.0,22.0
te07-0007,0.9411764705882353,0.8888888888888888,1.0,24.0
te07-0009,0.75,0.6363636363636364,0.9130434782608695,23.0
te07-0014,0.9795918367346939,0.96,1.0,24.0
te07-0020,0.7428571428571429,0.8666666666666667,0.65,20.0
te07-0051,0.8363636363636364,0.7419354838709677,0.9583333333333334,24.0
te07-0052,0.9387755102040817,0.92,0.9583333333333334,24.0
te07-0057,0.4,1.0,0.25,12.0
te07-0060,0.6071428571428571,0.4857142857142857,0.8095238095238095,21.0
te07-0062,0.9189189189189189,0.85,1.0,17.0
te07-0063,0.9583333333333334,0.9583333333333334,0.9583333333333334,24.0
te07-0070,0.8148148148148149,0.7096774193548387,0.9565217391304348,23.0
te07-0096,0.9047619047619048,0.9047619047619048,0.9047619047619048,21.0
te07-0117,0.39999999999999997,0.75,0.2727272727272727,22.0
te07-0122,0.9565217391304348,0.9565217391304348,0.9565217391304348,23.0
te07-0128,0.8571428571428571,0.75,1.0,24.0
te07-0146,0.9787234042553191,1.0,0.9583333333333334,24.0
te07-0149,0.8076923076923077,0.75,0.875,24.0
te07-0158,0.7999999999999999,0.7096774193548387,0.9166666666666666,24.0
te07-0175,0.7894736842105263,0.9375,0.6818181818181818,22.0
te07-0185,0.7727272727272727,0.8095238095238095,0.7391304347826086,23.0
te07-0218,0.8936170212765957,0.875,0.9130434782608695,23.0
te07-0220,0.8292682926829269,0.85,0.8095238095238095,21.0
te07-0226,0.9795918367346939,0.96,1.0,24.0
te07-0234,0.5555555555555555,0.7692307692307693,0.43478260869565216,23.0
te07-0252,0.7906976744186046,0.85,0.7391304347826086,23.0
te07-0270,0.7391304347826088,0.6538461538461539,0.85,20.0
te07-0271,0.6666666666666666,0.8,0.5714285714285714,21.0
te07-0287,0.8571428571428572,0.84,0.875,24.0
te07-0289,0.8799999999999999,0.8461538461538461,0.9166666666666666,24.0
te07-0311,0.7567567567567567,0.7777777777777778,0.7368421052631579,19.0
te07-0316,0.27586206896551724,0.6666666666666666,0.17391304347826086,23.0
te07-0328,0.7659574468085106,0.6428571428571429,0.9473684210526315,19.0
te07-0331,0.9600000000000001,0.9230769230769231,1.0,12.0
te07-0348,0.7906976744186046,0.8095238095238095,0.7727272727272727,22.0
te07-0356,0.8636363636363636,0.8260869565217391,0.9047619047619048,21.0
te07-0361,0.88,1.0,0.7857142857142857,14.0
te07-0365,0.9411764705882353,0.8888888888888888,1.0,24.0
te07-0378,0.8372093023255814,0.8181818181818182,0.8571428571428571,21.0
te07-0405,0.9583333333333334,0.9583333333333334,0.9583333333333334,24.0
te07-0417,0.7804878048780488,0.8,0.7619047619047619,21.0
te07-0433,0.9411764705882353,0.8888888888888888,1.0,24.0
te07-0447,0.4878048780487805,0.5263157894736842,0.45454545454545453,22.0
te07-0476,0.76,0.6785714285714286,0.8636363636363636,22.0
te07-0480,0.3255813953488372,0.3333333333333333,0.3181818181818182,22.0
te07-0493,0.7857142857142856,0.8461538461538461,0.7333333333333333,15.0
te07-0495,0.689655172413793,0.7142857142857143,0.6666666666666666,15.0
te07-0496,0.37499999999999994,0.5454545454545454,0.2857142857142857,21.0
te07-0510,0.6,0.5555555555555556,0.6521739130434783,23.0
te07-0515,0.8214285714285714,0.71875,0.9583333333333334,24.0
te07-0518,0.9199999999999999,0.8846153846153846,0.9583333333333334,24.0
te07-0547,0.5333333333333333,0.6666666666666666,0.4444444444444444,18.0
te07-0550,0.7111111111111111,0.7619047619047619,0.6666666666666666,24.0
te07-0552,0.9047619047619047,1.0,0.8260869565217391,23.0
te07-0556,0.8461538461538461,0.8461538461538461,0.8461538461538461,13.0
te07-0573,0.8936170212765957,0.9130434782608695,0.875,24.0
te07-0597,0.923076923076923,0.8571428571428571,1.0,12.0
te07-0613,0.4878048780487805,0.5,0.47619047619047616,21.0
te07-0617,0.9600000000000001,0.9230769230769231,1.0,24.0
te07-0644,0.918918918918919,0.9444444444444444,0.8947368421052632,19.0
te07-0671,0.7906976744186046,0.8095238095238095,0.7727272727272727,22.0
te07-0674,0.896551724137931,0.9285714285714286,0.8666666666666667,15.0
te07-0677,0.6486486486486487,0.9230769230769231,0.5,24.0
te07-0682,0.8260869565217391,0.8260869565217391,0.8260869565217391,23.0
te07-0683,0.923076923076923,0.8571428571428571,1.0,24.0
te07-0692,0.7368421052631579,0.6363636363636364,0.875,24.0
te07-0693,0.5777777777777778,0.6190476190476191,0.5416666666666666,24.0
te07-0694,0.8571428571428572,0.9375,0.7894736842105263,19.0
te07-0699,0.7843137254901961,0.7407407407407407,0.8333333333333334,24.0
te07-0704,0.8510638297872342,0.8,0.9090909090909091,22.0
te07-0706,0.909090909090909,0.8695652173913043,0.9523809523809523,21.0
te07-0715,0.7777777777777778,0.7777777777777778,0.7777777777777778,18.0
te07-0740,0.6521739130434783,0.625,0.6818181818181818,22.0
te07-0742,0.608695652173913,0.875,0.4666666666666667,15.0
te07-0746,0.9714285714285714,1.0,0.9444444444444444,18.0
te07-0749,0.8275862068965517,1.0,0.7058823529411765,17.0
te07-0754,0.8636363636363636,0.8636363636363636,0.8636363636363636,22.0
te07-0778,0.9795918367346939,0.96,1.0,24.0
te07-0779,0.5454545454545454,0.75,0.42857142857142855,21.0
te07-0785,0.7878787878787878,0.9285714285714286,0.6842105263157895,19.0
te07-0797,1.0,1.0,1.0,19.0
te07-0799,0.7647058823529413,0.8666666666666667,0.6842105263157895,19.0
te07-0813,0.4782608695652174,0.4782608695652174,0.4782608695652174,23.0
te07-0816,0.7894736842105263,0.7894736842105263,0.7894736842105263,19.0
te07-0831,0.7272727272727273,1.0,0.5714285714285714,14.0
te07-0838,0.9696969696969697,0.9411764705882353,1.0,16.0
te07-0839,0.5666666666666667,0.4594594594594595,0.7391304347826086,23.0
te07-0840,0.9166666666666666,0.9166666666666666,0.9166666666666666,24.0
te07-0844,0.85,0.7727272727272727,0.9444444444444444,18.0
te07-0851,0.7999999999999999,0.8888888888888888,0.7272727272727273,22.0
te07-0898,0.8333333333333334,0.8333333333333334,0.8333333333333334,24.0
te07-0903,0.8,0.8181818181818182,0.782608695652174,23.0
te07-0965,0.7200000000000001,0.9,0.6,15.0
te08-0019,0.9285714285714286,0.8666666666666667,1.0,13.0
te08-0100,0.9743589743589743,0.95,1.0,19.0
te08-0102,0.9500000000000001,0.9047619047619048,1.0,19.0
te08-0163,0.84,0.7777777777777778,0.9130434782608695,23.0
te08-0207,0.742857142857143,0.8125,0.6842105263157895,19.0
te08-0210,0.888888888888889,0.9090909090909091,0.8695652173913043,23.0
te08-0215,0.5641025641025642,0.6111111111111112,0.5238095238095238,21.0
te08-0223,0.9199999999999999,0.8846153846153846,0.9583333333333334,24.0
te08-0225,0.8979591836734694,0.88,0.9166666666666666,24.0
te08-0258,0.967741935483871,0.9375,1.0,15.0
te08-0281,0.8695652173913043,0.8695652173913043,0.8695652173913043,23.0
te08-0320,0.7906976744186046,0.85,0.7391304347826086,23.0
te08-0321,0.9600000000000001,0.9230769230769231,1.0,24.0
te08-0325,0.9375,1.0,0.8823529411764706,17.0
te08-0352,0.9047619047619047,1.0,0.8260869565217391,23.0
te09-0003,0.75,0.65625,0.875,24.0
te09-0032,0.7222222222222223,0.5909090909090909,0.9285714285714286,14.0
te09-0035,0.6060606060606061,0.8333333333333334,0.47619047619047616,21.0
te09-0084,0.9795918367346939,0.96,1.0,24.0
te09-0094,0.6037735849056604,0.5161290322580645,0.7272727272727273,22.0
te09-0117,0.8000000000000002,0.9230769230769231,0.7058823529411765,17.0
te09-0118,0.9655172413793104,0.9333333333333333,1.0,14.0
te09-0121,1.0,1.0,1.0,19.0
te09-0123,0.9473684210526315,0.9473684210526315,0.9473684210526315,19.0
te09-0133,0.9285714285714286,0.9285714285714286,0.9285714285714286,14.0
te09-0137,0.45161290322580644,1.0,0.2916666666666667,24.0
te09-0145,0.8421052631578948,0.7272727272727273,1.0,24.0
te09-0149,0.9787234042553191,0.9583333333333334,1.0,23.0
te09-0151,0.9787234042553191,1.0,0.9583333333333334,24.0
te09-0156,0.6666666666666666,0.64,0.6956521739130435,23.0
te09-0171,0.8695652173913043,0.8695652173913043,0.8695652173913043,23.0
te09-0174,0.75,0.8823529411764706,0.6521739130434783,23.0
te09-0193,0.7222222222222222,0.7222222222222222,0.7222222222222222,18.0
te09-0222,0.8,1.0,0.6666666666666666,24.0
te09-0228,0.9600000000000001,0.9230769230769231,1.0,24.0
te09-0231,0.6666666666666666,0.6666666666666666,0.6666666666666666,24.0
te09-0248,0.41860465116279066,0.36,0.5,18.0
te09-0272,0.9411764705882353,0.8888888888888888,1.0,24.0
te09-0277,0.7346938775510204,0.72,0.75,24.0
te09-0285,0.9600000000000001,0.9230769230769231,1.0,24.0
te09-0289,0.6451612903225806,0.7692307692307693,0.5555555555555556,18.0
te09-0300,0.7586206896551724,0.9166666666666666,0.6470588235294118,17.0
te09-0301,0.7636363636363636,0.6774193548387096,0.875,24.0
te09-0310,1.0,1.0,1.0,23.0
te09-0312,0.8636363636363635,0.95,0.7916666666666666,24.0
te09-0315,0.8727272727272727,0.7741935483870968,1.0,24.0
te09-0343,0.8400000000000001,0.8076923076923077,0.875,24.0
te09-0380,0.875,0.875,0.875,16.0
te09-0386,0.7777777777777778,1.0,0.6363636363636364,22.0
te09-0391,0.8461538461538461,0.7857142857142857,0.9166666666666666,24.0
te09-0407,0.6500000000000001,0.6842105263157895,0.6190476190476191,21.0
te09-0415,0.7555555555555555,0.7391304347826086,0.7727272727272727,22.0
te09-0429,0.6666666666666666,0.9090909090909091,0.5263157894736842,19.0
te09-0458,0.7027027027027026,0.8125,0.6190476190476191,21.0
te09-0459,0.8387096774193549,0.8125,0.8666666666666667,15.0
te09-0468,0.9795918367346939,0.96,1.0,24.0
te09-0481,1.0,1.0,1.0,24.0
te09-0502,0.9787234042553191,1.0,0.9583333333333334,24.0
te09-0521,0.923076923076923,0.8571428571428571,1.0,24.0
te09-0538,0.8148148148148148,0.8461538461538461,0.7857142857142857,14.0
te09-0548,0.7391304347826085,0.7391304347826086,0.7391304347826086,23.0
te09-0549,0.608695652173913,0.875,0.4666666666666667,15.0
te09-0550,0.8181818181818182,0.75,0.9,20.0
te09-0554,0.9583333333333334,0.9583333333333334,0.9583333333333334,24.0
te09-0566,0.8275862068965517,1.0,0.7058823529411765,17.0
te09-0582,0.8076923076923076,0.7241379310344828,0.9130434782608695,23.0
te09-0585,0.7058823529411765,0.6428571428571429,0.782608695652174,23.0
te09-0589,0.9047619047619048,0.9047619047619048,0.9047619047619048,21.0
te09-0601,0.7346938775510204,0.72,0.75,24.0
te09-0605,0.6923076923076924,1.0,0.5294117647058824,17.0
te09-0634,0.2222222222222222,0.6666666666666666,0.13333333333333333,15.0
te10-0041,0.7741935483870968,0.7058823529411765,0.8571428571428571,14.0
te10-0062,0.7857142857142857,0.6875,0.9166666666666666,24.0
te10-0075,0.5531914893617021,0.5416666666666666,0.5652173913043478,23.0
te10-0107,0.8750000000000001,0.7777777777777778,1.0,14.0
te10-0143,0.5641025641025642,0.5238095238095238,0.6111111111111112,18.0
te10-0168,0.8799999999999999,0.8461538461538461,0.9166666666666666,24.0
te10-0180,0.7272727272727272,0.8,0.6666666666666666,18.0
te10-0186,0.7368421052631579,1.0,0.5833333333333334,12.0
te10-0230,0.6666666666666666,0.6666666666666666,0.6666666666666666,21.0
te10-0244,0.7083333333333334,0.68,0.7391304347826086,23.0
te10-0262,0.888888888888889,0.8,1.0,24.0
te10-0276,0.896551724137931,0.9285714285714286,0.8666666666666667,15.0
te10-0279,0.9411764705882353,0.8888888888888888,1.0,24.0
te10-0299,0.8085106382978724,0.8260869565217391,0.7916666666666666,24.0
te10-0337,0.9361702127659574,0.9565217391304348,0.9166666666666666,24.0
te10-0374,0.411764705882353,0.6363636363636364,0.30434782608695654,23.0
te10-0397,0.7777777777777778,0.7777777777777778,0.7777777777777778,18.0
te10-0428,0.9285714285714286,0.9285714285714286,0.9285714285714286,14.0
te10-0451,0.9473684210526316,0.9,1.0,18.0
te10-0490,0.923076923076923,0.8571428571428571,1.0,24.0
te10-0503,0.9199999999999999,0.8846153846153846,0.9583333333333334,24.0
te10-0560,0.923076923076923,0.8571428571428571,1.0,24.0
te10-0574,0.7547169811320754,0.6666666666666666,0.8695652173913043,23.0
te10-0605,0.6428571428571429,0.9,0.5,18.0
te10-0631,0.9795918367346939,0.96,1.0,24.0
te10-0637,0.782608695652174,0.782608695652174,0.782608695652174,23.0
te10-0649,0.923076923076923,0.8571428571428571,1.0,24.0
te10-0657,1.0,1.0,1.0,13.0
te10-0679,0.8461538461538461,0.7586206896551724,0.9565217391304348,23.0
te10-0684,0.8627450980392156,0.8148148148148148,0.9166666666666666,24.0
te10-0738,0.923076923076923,0.8571428571428571,1.0,24.0
te10-0755,0.6451612903225806,0.5263157894736842,0.8333333333333334,24.0
te10-0759,0.9387755102040817,0.92,0.9583333333333334,24.0
te10-0766,0.6956521739130435,0.7272727272727273,0.6666666666666666,12.0
te10-0774,0.8484848484848485,0.8235294117647058,0.875,16.0
te10-0791,0.9,0.8571428571428571,0.9473684210526315,19.0
te10-0819,0.717948717948718,0.875,0.6086956521739131,23.0
te10-0859,0.8125000000000001,1.0,0.6842105263157895,19.0
te11-0005,0.9302325581395349,0.8695652173913043,1.0,20.0
te11-0014,1.0,1.0,1.0,22.0
te11-0026,0.9361702127659574,0.9565217391304348,0.9166666666666666,24.0
te11-0045,0.5714285714285714,0.8888888888888888,0.42105263157894735,19.0
te11-0047,0.5294117647058824,0.8181818181818182,0.391304347826087,23.0
te11-0057,0.8695652173913043,0.9090909090909091,0.8333333333333334,24.0
te11-0066,0.3243243243243243,0.42857142857142855,0.2608695652173913,23.0
te11-0067,0.8799999999999999,0.8461538461538461,0.9166666666666666,24.0
te11-0075,0.8571428571428572,0.84,0.875,24.0
te11-0077,0.9019607843137255,0.8214285714285714,1.0,23.0
te11-0093,0.896551724137931,0.9285714285714286,0.8666666666666667,15.0
te11-0112,0.8205128205128205,0.7272727272727273,0.9411764705882353,17.0
te11-0117,0.8571428571428572,0.9,0.8181818181818182,22.0
te11-0141,0.6530612244897959,0.6153846153846154,0.6956521739130435,23.0
te11-0164,0.6909090909090908,0.59375,0.8260869565217391,23.0
te11-0170,0.9795918367346939,0.96,1.0,24.0
te11-0173,0.8936170212765957,0.875,0.9130434782608695,23.0
te11-0189,0.742857142857143,0.9285714285714286,0.6190476190476191,21.0
te11-0196,0.28571428571428564,0.3,0.2727272727272727,22.0
te11-0313,0.48648648648648646,0.6923076923076923,0.375,24.0
te11-0321,0.7659574468085107,0.782608695652174,0.75,24.0
te11-0330,0.7272727272727272,0.7619047619047619,0.6956521739130435,23.0
te11-0336,0.8695652173913043,0.8695652173913043,0.8695652173913043,23.0
te11-0340,0.48484848484848486,0.8,0.34782608695652173,23.0
te11-0346,0.631578947368421,0.6666666666666666,0.6,20.0
te11-0348,0.5853658536585366,0.6666666666666666,0.5217391304347826,23.0
te11-0351,0.9411764705882353,0.8888888888888888,1.0,24.0
te11-0353,0.8679245283018867,0.7931034482758621,0.9583333333333334,24.0
te11-0360,0.6818181818181818,0.6818181818181818,0.6818181818181818,22.0
te11-0369,0.9056603773584906,0.8275862068965517,1.0,24.0
te11-0374,0.5263157894736842,0.7142857142857143,0.4166666666666667,24.0
te11-0384,0.816326530612245,0.8,0.8333333333333334,24.0
te11-0389,0.7333333333333334,0.9166666666666666,0.6111111111111112,18.0
te11-0390,0.5882352941176471,0.625,0.5555555555555556,18.0
te11-0394,0.9600000000000001,1.0,0.9230769230769231,13.0
te11-0409,0.9565217391304348,1.0,0.9166666666666666,24.0
te11-0412,0.8372093023255814,0.9473684210526315,0.75,24.0
te11-0425,0.7142857142857143,0.8333333333333334,0.625,16.0
te11-0444,0.7755102040816326,0.7307692307692307,0.8260869565217391,23.0
te11-0477,0.9056603773584906,0.8275862068965517,1.0,24.0
te11-0480,0.8333333333333333,0.9090909090909091,0.7692307692307693,13.0
te11-0482,0.8260869565217391,0.8260869565217391,0.8260869565217391,23.0
te11-0488,0.7368421052631579,0.7368421052631579,0.7368421052631579,19.0
te11-0489,0.5405405405405406,0.7692307692307693,0.4166666666666667,24.0
te11-0506,0.6938775510204083,0.6296296296296297,0.7727272727272727,22.0
te11-0511,0.6153846153846153,0.75,0.5217391304347826,23.0
te11-0517,0.7083333333333334,0.7083333333333334,0.7083333333333334,24.0
te11-0526,0.5,0.5238095238095238,0.4782608695652174,23.0
te11-0538,0.9411764705882353,1.0,0.8888888888888888,18.0
te11-0554,0.9056603773584906,0.8275862068965517,1.0,24.0
te11-0557,1.0,1.0,1.0,15.0
te11-0559,0.846153846153846,0.7333333333333333,1.0,22.0
te11-0583,0.8648648648648649,0.8421052631578947,0.8888888888888888,18.0
te11-0588,0.7999999999999999,0.8888888888888888,0.7272727272727273,22.0
te11-0601,0.6428571428571429,1.0,0.47368421052631576,19.0
te11-0605,0.9411764705882353,0.8888888888888888,1.0,24.0
te11-0618,0.5384615384615384,0.4827586206896552,0.6086956521739131,23.0
te11-0624,0.9795918367346939,0.96,1.0,24.0
te11-0647,0.9583333333333334,0.9583333333333334,0.9583333333333334,24.0
te11-0664,0.744186046511628,0.8421052631578947,0.6666666666666666,24.0
te11-0667,0.7058823529411764,0.8571428571428571,0.6,20.0
te11-0675,0.8888888888888888,0.8888888888888888,0.8888888888888888,18.0
te11-0684,0.6666666666666666,0.9090909090909091,0.5263157894736842,19.0
te11-0695,0.7647058823529412,0.7647058823529411,0.7647058823529411,17.0
te11-0697,0.7659574468085106,0.6666666666666666,0.9,20.0
te11-0702,0.6486486486486487,0.9230769230769231,0.5,24.0
te11-0725,0.6818181818181818,0.6818181818181818,0.6818181818181818,22.0
te11-0728,0.8260869565217391,0.8260869565217391,0.8260869565217391,23.0
te11-0731,0.8095238095238095,0.7727272727272727,0.85,20.0
te11-0738,0.8571428571428571,0.75,1.0,24.0
te11-0768,1.0,1.0,1.0,24.0
te11-0779,0.816326530612245,0.8,0.8333333333333334,24.0
te12-0039,0.851063829787234,0.8695652173913043,0.8333333333333334,24.0
te12-0048,0.875,0.875,0.875,24.0
te12-0063,0.9302325581395349,0.9090909090909091,0.9523809523809523,21.0
te12-0072,0.923076923076923,0.8571428571428571,1.0,24.0
te12-0087,0.7567567567567568,0.9333333333333333,0.6363636363636364,22.0
te12-0100,0.8108108108108109,0.9375,0.7142857142857143,21.0
te12-0112,0.8135593220338984,0.6857142857142857,1.0,24.0
te12-0146,0.5964912280701754,0.425,1.0,17.0
te12-0156,1.0,1.0,1.0,17.0
te12-0164,0.8727272727272727,0.7741935483870968,1.0,24.0
te12-0180,0.8,1.0,0.6666666666666666,15.0
te12-0186,0.888888888888889,0.9523809523809523,0.8333333333333334,24.0
te12-0188,0.9,0.8571428571428571,0.9473684210526315,19.0
te12-0226,0.7999999999999999,0.7407407407407407,0.8695652173913043,23.0
te12-0239,0.8695652173913043,0.9090909090909091,0.8333333333333334,24.0
te12-0246,0.8695652173913043,0.9090909090909091,0.8333333333333334,24.0
te12-0256,0.4848484848484848,0.5333333333333333,0.4444444444444444,18.0
te12-0257,1.0,1.0,1.0,14.0
te12-0305,1.0,1.0,1.0,15.0
te12-0307,0.9411764705882353,0.8888888888888888,1.0,16.0
te12-0331,0.5581395348837208,0.5454545454545454,0.5714285714285714,21.0
te12-0351,0.8,1.0,0.6666666666666666,21.0
te12-0378,0.8095238095238095,0.8095238095238095,0.8095238095238095,21.0
te12-0381,0.8085106382978724,0.7916666666666666,0.8260869565217391,23.0
te12-0383,0.8800000000000001,0.8148148148148148,0.9565217391304348,23.0
te12-0388,0.5925925925925927,0.8,0.47058823529411764,17.0
te12-0418,0.9787234042553191,0.9583333333333334,1.0,23.0
te12-0422,0.9019607843137256,0.8518518518518519,0.9583333333333334,24.0
te12-0430,0.742857142857143,0.8125,0.6842105263157895,19.0
te12-0443,0.8936170212765957,0.9130434782608695,0.875,24.0
te12-0444,0.761904761904762,0.8421052631578947,0.6956521739130435,23.0
te12-0447,0.8936170212765957,0.9130434782608695,0.875,24.0
te12-0458,0.9130434782608695,0.9130434782608695,0.9130434782608695,23.0
te12-0459,0.6818181818181818,0.5769230769230769,0.8333333333333334,18.0
te12-0466,0.962962962962963,1.0,0.9285714285714286,14.0
te12-0482,0.8444444444444444,0.9047619047619048,0.7916666666666666,24.0
te12-0486,0.47058823529411764,1.0,0.3076923076923077,13.0
te12-0487,0.9285714285714286,0.8666666666666667,1.0,13.0
te12-0488,0.6511627906976744,0.6666666666666666,0.6363636363636364,22.0
te12-0498,0.8717948717948718,0.7727272727272727,1.0,17.0
te12-0507,0.975609756097561,0.9523809523809523,1.0,20.0
te12-0508,1.0,1.0,1.0,24.0
te12-0514,0.9019607843137256,0.8518518518518519,0.9583333333333334,24.0
te12-0538,0.6666666666666666,0.7777777777777778,0.5833333333333334,24.0
te12-0544,0.6666666666666667,0.7058823529411765,0.631578947368421,19.0
te12-0547,0.7391304347826088,0.7727272727272727,0.7083333333333334,24.0
te12-0550,0.9795918367346939,0.96,1.0,24.0
te12-0553,0.918918918918919,0.9444444444444444,0.8947368421052632,19.0
te12-0556,0.6666666666666666,0.6666666666666666,0.6666666666666666,21.0
te12-0562,0.7619047619047619,0.7619047619047619,0.7619047619047619,21.0
te12-0565,0.7346938775510203,0.6923076923076923,0.782608695652174,23.0
te12-0584,0.8636363636363635,0.95,0.7916666666666666,24.0
te12-0586,0.5789473684210527,0.6111111111111112,0.55,20.0
te12-0590,0.9047619047619048,0.9047619047619048,0.9047619047619048,21.0
te12-0612,0.7804878048780488,0.8421052631578947,0.7272727272727273,22.0
te12-0628,0.9130434782608695,0.9130434782608695,0.9130434782608695,23.0
te12-0636,0.8333333333333333,0.8,0.8695652173913043,23.0
te12-0641,0.21428571428571427,0.5,0.13636363636363635,22.0
te12-0651,0.9583333333333334,0.92,1.0,23.0
te12-0653,0.7826086956521738,0.9,0.6923076923076923,13.0
te12-0660,0.8148148148148148,1.0,0.6875,16.0
te12-0664,0.6875,0.7333333333333333,0.6470588235294118,17.0
te13-0066,1.0,1.0,1.0,18.0
te13-0072,0.8085106382978724,0.8260869565217391,0.7916666666666666,24.0
te13-0102,0.9199999999999999,0.8846153846153846,0.9583333333333334,24.0
te13-0116,0.48,0.6,0.4,15.0
te13-0123,0.9387755102040816,0.8846153846153846,1.0,23.0
te13-0135,0.9583333333333334,0.9583333333333334,0.9583333333333334,24.0
te13-0137,0.7999999999999999,0.7096774193548387,0.9166666666666666,24.0
te13-0169,0.7727272727272727,0.8095238095238095,0.7391304347826086,23.0
te13-0172,0.5882352941176471,0.8333333333333334,0.45454545454545453,22.0
te13-0190,0.6470588235294118,0.6470588235294118,0.6470588235294118,17.0
te13-0209,0.9565217391304348,0.9565217391304348,0.9565217391304348,23.0
te13-0242,0.8800000000000001,0.8148148148148148,0.9565217391304348,23.0
te13-0248,0.888888888888889,0.8695652173913043,0.9090909090909091,22.0
te13-0249,0.9583333333333334,0.9583333333333334,0.9583333333333334,24.0
te13-0253,0.8648648648648649,0.8421052631578947,0.8888888888888888,18.0
te13-0263,0.9565217391304348,1.0,0.9166666666666666,12.0
te13-0275,0.8837209302325583,0.95,0.8260869565217391,23.0
te13-0283,0.9302325581395349,1.0,0.8695652173913043,23.0
te13-0286,1.0,1.0,1.0,21.0
te13-0301,0.9714285714285714,0.9444444444444444,1.0,17.0
te13-0357,0.7272727272727272,0.7619047619047619,0.6956521739130435,23.0
te13-0360,0.5806451612903226,0.5294117647058824,0.6428571428571429,14.0
te13-0371,0.8695652173913043,0.8695652173913043,0.8695652173913043,23.0
te13-0377,0.7843137254901961,0.7407407407407407,0.8333333333333334,24.0
te13-0390,0.4583333333333333,0.4230769230769231,0.5,22.0
te13-0402,0.8301886792452831,0.7333333333333333,0.9565217391304348,23.0
te13-0409,0.8,0.6666666666666666,1.0,24.0
te13-0415,0.8947368421052632,0.8947368421052632,0.8947368421052632,19.0
te13-0418,0.5517241379310345,0.6666666666666666,0.47058823529411764,17.0
te13-0428,0.7567567567567567,0.7368421052631579,0.7777777777777778,18.0
te13-0430,0.9787234042553191,1.0,0.9583333333333334,24.0
te13-0446,0.9387755102040817,0.92,0.9583333333333334,24.0
te13-0456,0.9302325581395349,0.9090909090909091,0.9523809523809523,21.0
te13-0458,0.9411764705882353,0.8888888888888888,1.0,24.0
te13-0459,0.9333333333333333,1.0,0.875,24.0
te13-0470,0.9411764705882353,0.8888888888888888,1.0,24.0
te13-0481,0.717948717948718,0.7368421052631579,0.7,20.0
te13-0484,0.9583333333333334,0.92,1.0,23.0
te13-0486,0.8695652173913043,0.8695652173913043,0.8695652173913043,23.0
te13-0516,0.9523809523809523,0.9523809523809523,0.9523809523809523,21.0
te13-0520,0.7142857142857143,0.9090909090909091,0.5882352941176471,17.0
te13-0530,0.9090909090909091,1.0,0.8333333333333334,12.0
te13-0574,0.787878787878788,1.0,0.65,20.0
te13-0597,0.7636363636363636,0.6774193548387096,0.875,24.0
te13-0602,0.8936170212765957,0.9130434782608695,0.875,24.0
te13-0622,0.9166666666666666,0.9166666666666666,0.9166666666666666,24.0
te13-0633,0.6511627906976744,0.6666666666666666,0.6363636363636364,22.0
te13-0634,0.816326530612245,0.8,0.8333333333333334,24.0
te13-0636,0.9302325581395349,0.9090909090909091,0.9523809523809523,21.0
te13-0670,0.9583333333333334,0.9583333333333334,0.9583333333333334,24.0
te13-0678,0.972972972972973,1.0,0.9473684210526315,19.0
te13-0682,0.8636363636363636,0.9047619047619048,0.8260869565217391,23.0
te13-0821,1.0,1.0,1.0,24.0
te13-0823,0.9583333333333334,0.9583333333333334,0.9583333333333334,24.0
te13-0827,0.9019607843137255,0.8214285714285714,1.0,23.0
te13-0848,0.8085106382978724,0.76,0.8636363636363636,22.0
te13-0851,0.761904761904762,0.8,0.7272727272727273,22.0
te14-0015,0.918918918918919,0.8947368421052632,0.9444444444444444,18.0
te14-0017,0.761904761904762,0.8888888888888888,0.6666666666666666,24.0
te14-0032,0.9387755102040817,0.92,0.9583333333333334,24.0
te14-0038,0.9600000000000001,0.9230769230769231,1.0,24.0
te14-0100,0.7777777777777778,0.6666666666666666,0.9333333333333333,15.0
te14-0104,0.8846153846153846,0.7931034482758621,1.0,23.0
te14-0108,0.4583333333333333,0.44,0.4782608695652174,23.0
te14-0115,0.9166666666666666,0.9166666666666666,0.9166666666666666,12.0
te14-0123,0.9333333333333333,1.0,0.875,24.0
te14-0124,0.9411764705882353,0.8888888888888888,1.0,24.0
te14-0146,0.8695652173913043,0.8695652173913043,0.8695652173913043,23.0
te14-0159,0.6808510638297872,0.6956521739130435,0.6666666666666666,24.0
te14-0168,0.5714285714285715,1.0,0.4,15.0
te14-0176,0.9047619047619048,0.8636363636363636,0.95,20.0
te14-0177,0.9387755102040817,0.92,0.9583333333333334,24.0
te14-0194,0.8333333333333333,0.8,0.8695652173913043,23.0
te14-0199,0.782608695652174,0.782608695652174,0.782608695652174,23.0
te14-0211,0.6666666666666666,0.8,0.5714285714285714,21.0
te14-0221,0.9473684210526315,0.9473684210526315,0.9473684210526315,19.0
te14-0225,0.7692307692307693,0.8823529411764706,0.6818181818181818,22.0
te14-0226,0.5625,0.6,0.5294117647058824,17.0
te14-0230,0.5882352941176471,0.9090909090909091,0.43478260869565216,23.0
te14-0241,0.8500000000000001,0.8095238095238095,0.8947368421052632,19.0
te14-0245,0.896551724137931,0.8666666666666667,0.9285714285714286,14.0
te14-0257,0.8181818181818182,0.9,0.75,24.0
te14-0264,0.4705882352941177,0.6666666666666666,0.36363636363636365,22.0
te14-0271,0.9411764705882353,0.8888888888888888,1.0,24.0
te14-0286,0.9019607843137256,0.8518518518518519,0.9583333333333334,24.0
tr03-0005,0.9411764705882353,0.9411764705882353,0.9411764705882353,17.0
tr03-0052,0.8571428571428572,0.84,0.875,24.0
tr03-0061,0.9787234042553191,0.9583333333333334,1.0,23.0
tr03-0078,0.6909090909090909,0.6129032258064516,0.7916666666666666,24.0
tr03-0079,0.8235294117647058,1.0,0.7,20.0
tr03-0083,0.9375,0.8823529411764706,1.0,15.0
tr03-0086,0.9375,0.9375,0.9375,16.0
tr03-0087,0.9600000000000001,0.9230769230769231,1.0,24.0
tr03-0092,0.744186046511628,0.6666666666666666,0.8421052631578947,19.0
tr03-0100,0.8571428571428572,0.7894736842105263,0.9375,16.0
tr03-0103,0.9268292682926829,0.95,0.9047619047619048,21.0
tr03-0134,0.8108108108108109,0.8333333333333334,0.7894736842105263,19.0
tr03-0135,0.7407407407407408,0.6666666666666666,0.8333333333333334,24.0
tr03-0141,1.0,1.0,1.0,13.0
tr03-0146,0.9500000000000001,0.9047619047619048,1.0,19.0
tr03-0152,0.8666666666666666,0.7647058823529411,1.0,13.0
tr03-0166,0.8421052631578947,0.7619047619047619,0.9411764705882353,17.0
tr03-0167,0.9047619047619048,0.9047619047619048,0.9047619047619048,21.0
tr03-0179,0.7,0.7,0.7,20.0
tr03-0184,0.8571428571428572,0.8181818181818182,0.9,20.0
tr03-0187,0.923076923076923,0.8571428571428571,1.0,24.0
tr03-0198,0.923076923076923,1.0,0.8571428571428571,14.0
tr03-0212,0.8571428571428571,0.8571428571428571,0.8571428571428571,14.0
tr03-0216,0.9166666666666666,0.8461538461538461,1.0,22.0
tr03-0241,0.9090909090909091,0.8823529411764706,0.9375,16.0
tr03-0251,0.9189189189189189,1.0,0.85,20.0
tr03-0256,0.8936170212765957,0.9130434782608695,0.875,24.0
tr03-0257,0.8387096774193548,1.0,0.7222222222222222,18.0
tr03-0267,0.9142857142857143,0.8888888888888888,0.9411764705882353,17.0
tr03-0287,0.8500000000000001,0.8095238095238095,0.8947368421052632,19.0
tr03-0289,0.7692307692307693,1.0,0.625,16.0
tr03-0299,0.816326530612245,0.8,0.8333333333333334,24.0
tr03-0300,0.8148148148148148,0.7333333333333333,0.9166666666666666,24.0
tr03-0304,0.8292682926829269,0.8095238095238095,0.85,20.0
tr03-0314,0.8372093023255814,0.8571428571428571,0.8181818181818182,22.0
tr03-0322,0.846153846153846,1.0,0.7333333333333333,15.0
tr03-0333,0.923076923076923,0.8571428571428571,1.0,24.0
tr03-0373,0.7027027027027027,0.7647058823529411,0.65,20.0
tr03-0392,1.0,1.0,1.0,12.0
tr03-0394,0.9545454545454546,0.9545454545454546,0.9545454545454546,22.0
tr03-0396,0.25,0.6666666666666666,0.15384615384615385,13.0
tr03-0401,0.9285714285714286,0.9285714285714286,0.9285714285714286,14.0
tr03-0402,0.9302325581395349,0.8695652173913043,1.0,20.0
tr03-0411,0.45161290322580644,0.5384615384615384,0.3888888888888889,18.0
tr03-0413,0.9199999999999999,0.8846153846153846,0.9583333333333334,24.0
tr03-0426,1.0,1.0,1.0,18.0
tr03-0428,0.7096774193548387,0.8461538461538461,0.6111111111111112,18.0
tr03-0434,0.9387755102040817,0.92,0.9583333333333334,24.0
tr03-0473,0.8,1.0,0.6666666666666666,12.0
tr03-0485,0.6842105263157895,0.6842105263157895,0.6842105263157895,19.0
tr03-0494,0.823529411764706,0.7777777777777778,0.875,24.0
tr03-0523,0.9777777777777777,0.9565217391304348,1.0,22.0
tr03-0532,0.9411764705882353,0.9411764705882353,0.9411764705882353,17.0
tr03-0536,1.0,1.0,1.0,24.0
tr03-0541,0.75,0.75,0.75,24.0
tr03-0560,0.9285714285714286,1.0,0.8666666666666667,15.0
tr03-0584,0.8275862068965517,0.9230769230769231,0.75,16.0
tr03-0592,0.9565217391304348,0.9166666666666666,1.0,22.0
tr03-0618,0.42857142857142855,1.0,0.2727272727272727,22.0
tr03-0672,0.75,0.8571428571428571,0.6666666666666666,18.0
tr03-0674,0.6222222222222222,0.6666666666666666,0.5833333333333334,24.0
tr03-0678,0.6086956521739131,0.7777777777777778,0.5,14.0
tr03-0686,0.9047619047619048,0.8636363636363636,0.95,20.0
tr03-0697,0.9743589743589743,0.95,1.0,19.0
tr03-0708,0.9545454545454545,0.9130434782608695,1.0,21.0
tr03-0713,0.9696969696969697,1.0,0.9411764705882353,17.0
tr03-0715,0.8727272727272727,0.7741935483870968,1.0,24.0
tr03-0726,0.9473684210526316,0.9,1.0,18.0
tr03-0733,0.7000000000000001,0.875,0.5833333333333334,24.0
tr03-0743,0.888888888888889,1.0,0.8,20.0
tr03-0759,0.9,0.9,0.9,20.0
tr03-0764,0.8799999999999999,0.8461538461538461,0.9166666666666666,24.0
tr03-0773,1.0,1.0,1.0,18.0
tr03-0780,0.85,0.85,0.85,20.0
tr03-0792,0.7272727272727274,0.9230769230769231,0.6,20.0
tr03-0793,0.9032258064516129,0.8235294117647058,1.0,14.0
tr03-0796,0.8,0.782608695652174,0.8181818181818182,22.0
tr03-0802,0.7857142857142856,0.7333333333333333,0.8461538461538461,13.0
tr03-0816,0.972972972972973,0.9473684210526315,1.0,18.0
tr03-0862,0.6341463414634146,0.7647058823529411,0.5416666666666666,24.0
tr03-0863,0.8571428571428572,0.8076923076923077,0.9130434782608695,23.0
tr03-0876,0.8,0.7692307692307693,0.8333333333333334,24.0
tr03-0879,0.8085106382978724,0.8260869565217391,0.7916666666666666,24.0
tr03-0885,0.9230769230769231,0.9,0.9473684210526315,19.0
tr03-0900,0.8333333333333333,0.7894736842105263,0.8823529411764706,17.0
tr03-0904,0.7804878048780488,0.8888888888888888,0.6956521739130435,23.0
tr03-0906,0.7894736842105263,0.7894736842105263,0.7894736842105263,19.0
tr03-0907,0.7916666666666667,0.6785714285714286,0.95,20.0
tr03-0909,0.9600000000000001,0.9230769230769231,1.0,24.0
tr03-0919,0.8125,0.8666666666666667,0.7647058823529411,17.0
tr03-0921,0.888888888888889,0.8,1.0,20.0
tr03-0940,0.9473684210526316,0.9,1.0,18.0
tr03-0955,0.8500000000000001,0.8947368421052632,0.8095238095238095,21.0
tr03-0982,0.4516129032258065,0.875,0.30434782608695654,23.0
tr03-1004,0.9767441860465117,0.9545454545454546,1.0,21.0
tr03-1010,0.6875000000000001,1.0,0.5238095238095238,21.0
tr03-1013,0.7999999999999999,0.8888888888888888,0.7272727272727273,22.0
tr03-1023,1.0,1.0,1.0,12.0
tr03-1056,0.8,1.0,0.6666666666666666,12.0
tr03-1082,0.9444444444444444,0.9444444444444444,0.9444444444444444,18.0
tr03-1100,0.9795918367346939,0.96,1.0,24.0
tr03-1112,0.8947368421052632,0.8947368421052632,0.8947368421052632,19.0
tr03-1115,0.8,0.9090909090909091,0.7142857142857143,14.0
tr03-1119,0.8571428571428572,0.9375,0.7894736842105263,19.0
tr03-1129,0.8421052631578947,0.9411764705882353,0.7619047619047619,21.0
tr03-1135,0.875,0.875,0.875,24.0
tr03-1143,0.8846153846153847,0.8214285714285714,0.9583333333333334,24.0
tr03-1155,0.8936170212765957,0.9130434782608695,0.875,24.0
tr03-1160,0.816326530612245,0.8,0.8333333333333334,24.0
tr03-1181,0.9230769230769231,0.9230769230769231,0.9230769230769231,13.0
tr03-1183,0.8,0.7692307692307693,0.8333333333333334,12.0
tr03-1185,0.851063829787234,0.8695652173913043,0.8333333333333334,24.0
tr03-1197,0.9600000000000001,0.9230769230769231,1.0,12.0
tr03-1226,0.7719298245614035,0.6666666666666666,0.9166666666666666,24.0
tr03-1231,0.9361702127659574,0.9565217391304348,0.9166666666666666,24.0
tr03-1292,0.9565217391304348,1.0,0.9166666666666666,12.0
tr03-1302,0.7333333333333334,0.9166666666666666,0.6111111111111112,18.0
tr03-1319,1.0,1.0,1.0,17.0
tr03-1333,0.9361702127659574,0.9565217391304348,0.9166666666666666,24.0
tr03-1346,0.9090909090909091,1.0,0.8333333333333334,12.0
tr03-1362,0.8333333333333334,0.8333333333333334,0.8333333333333334,24.0
tr03-1367,0.9500000000000001,0.9047619047619048,1.0,19.0
tr03-1371,0.8500000000000001,0.8095238095238095,0.8947368421052632,19.0
tr03-1373,0.9130434782608695,0.9545454545454546,0.875,24.0
tr03-1374,0.8679245283018867,0.7931034482758621,0.9583333333333334,24.0
tr03-1387,0.7333333333333334,0.8461538461538461,0.6470588235294118,17.0
tr03-1389,0.9714285714285714,1.0,0.9444444444444444,18.0
tr04-0008,0.9743589743589743,0.95,1.0,19.0
tr04-0014,0.9387755102040817,0.92,0.9583333333333334,24.0
tr04-0015,0.9500000000000001,0.9047619047619048,1.0,19.0
tr04-0020,0.7999999999999999,0.8571428571428571,0.75,16.0
tr04-0029,0.7499999999999999,0.9230769230769231,0.631578947368421,19.0
tr04-0030,0.9268292682926829,1.0,0.8636363636363636,22.0
tr04-0039,0.9714285714285714,1.0,0.9444444444444444,18.0
tr04-0041,0.9787234042553191,0.9583333333333334,1.0,23.0
tr04-0075,0.782608695652174,0.6666666666666666,0.9473684210526315,19.0
tr04-0079,0.3,1.0,0.17647058823529413,17.0
tr04-0117,0.7777777777777777,0.7,0.875,24.0
tr04-0120,0.8,0.9333333333333333,0.7,20.0
tr04-0121,1.0,1.0,1.0,14.0
tr04-0133,0.9600000000000001,0.9230769230769231,1.0,24.0
tr04-0144,1.0,1.0,1.0,12.0
tr04-0196,0.75,0.65625,0.875,24.0
tr04-0208,0.9411764705882353,0.8888888888888888,1.0,24.0
tr04-0210,0.7857142857142856,0.6666666666666666,0.9565217391304348,23.0
tr04-0214,0.8571428571428571,0.75,1.0,24.0
tr04-0216,0.71875,0.575,0.9583333333333334,24.0
tr04-0223,0.8888888888888888,0.9411764705882353,0.8421052631578947,19.0
tr04-0227,0.851063829787234,0.8695652173913043,0.8333333333333334,24.0
tr04-0231,0.7692307692307692,0.6666666666666666,0.9090909090909091,22.0
tr04-0239,0.9795918367346939,0.96,1.0,24.0
tr04-0247,0.7567567567567568,0.9333333333333333,0.6363636363636364,22.0
tr04-0261,0.5555555555555556,1.0,0.38461538461538464,13.0
tr04-0265,0.8947368421052632,1.0,0.8095238095238095,21.0
tr04-0269,0.8387096774193549,0.8125,0.8666666666666667,15.0
tr04-0275,0.8750000000000001,0.7777777777777778,1.0,21.0
tr04-0287,0.9375,0.9375,0.9375,16.0
tr04-0332,0.8666666666666666,1.0,0.7647058823529411,17.0
tr04-0342,0.8275862068965518,0.8571428571428571,0.8,15.0
tr04-0358,0.8947368421052632,0.9444444444444444,0.85,20.0
tr04-0362,0.8636363636363636,0.76,1.0,19.0
tr04-0374,0.5,1.0,0.3333333333333333,15.0
tr04-0393,1.0,1.0,1.0,12.0
tr04-0400,0.6666666666666666,0.5833333333333334,0.7777777777777778,18.0
tr04-0402,0.8260869565217391,0.7916666666666666,0.8636363636363636,22.0
tr04-0404,0.875,0.875,0.875,24.0
tr04-0417,0.7407407407407406,0.9090909090909091,0.625,16.0
tr04-0425,0.6428571428571428,0.5294117647058824,0.8181818181818182,22.0
tr04-0468,0.9696969696969697,0.9411764705882353,1.0,16.0
tr04-0471,0.8979591836734694,0.88,0.9166666666666666,24.0
tr04-0474,0.7999999999999999,0.875,0.7368421052631579,19.0
tr04-0503,0.9,0.9,0.9,20.0
tr04-0536,0.9600000000000001,1.0,0.9230769230769231,13.0
tr04-0551,0.8823529411764706,0.7894736842105263,1.0,15.0
tr04-0568,0.888888888888889,0.9230769230769231,0.8571428571428571,14.0
tr04-0569,0.9795918367346939,0.96,1.0,24.0
tr04-0570,0.8936170212765957,0.9130434782608695,0.875,24.0
tr04-0579,0.9056603773584906,0.8275862068965517,1.0,24.0
tr04-0583,0.8333333333333333,0.7142857142857143,1.0,20.0
tr04-0587,0.8372093023255814,0.9473684210526315,0.75,24.0
tr04-0603,0.9090909090909091,1.0,0.8333333333333334,24.0
tr04-0611,0.09090909090909091,0.3333333333333333,0.05263157894736842,19.0
tr04-0613,0.9473684210526315,0.9473684210526315,0.9473684210526315,19.0
tr04-0631,0.9523809523809523,0.9523809523809523,0.9523809523809523,21.0
tr04-0649,0.7647058823529412,1.0,0.6190476190476191,21.0
tr04-0658,0.7894736842105263,0.9375,0.6818181818181818,22.0
tr04-0671,0.9411764705882353,0.8888888888888888,1.0,24.0
tr04-0679,0.8070175438596493,0.696969696969697,0.9583333333333334,24.0
tr04-0695,0.6818181818181818,0.5357142857142857,0.9375,16.0
tr04-0699,0.65,0.7222222222222222,0.5909090909090909,22.0
tr04-0702,0.9019607843137256,0.8518518518518519,0.9583333333333334,24.0
tr04-0710,0.8275862068965517,1.0,0.7058823529411765,17.0
tr04-0726,0.8421052631578948,0.8888888888888888,0.8,20.0
tr04-0741,0.9285714285714286,0.9285714285714286,0.9285714285714286,14.0
tr04-0746,0.8275862068965517,0.7058823529411765,1.0,24.0
tr04-0762,0.8125000000000001,1.0,0.6842105263157895,19.0
tr04-0785,0.9523809523809523,0.9523809523809523,0.9523809523809523,21.0
tr04-0805,0.9090909090909091,0.8333333333333334,1.0,15.0
tr04-0806,0.9166666666666666,0.9166666666666666,0.9166666666666666,24.0
tr04-0808,0.9361702127659575,0.88,1.0,22.0
tr04-0825,0.9655172413793104,0.9333333333333333,1.0,14.0
tr04-0829,0.8571428571428571,0.8571428571428571,0.8571428571428571,14.0
tr04-0864,0.975609756097561,0.9523809523809523,1.0,20.0
tr04-0878,0.7692307692307693,0.9375,0.6521739130434783,23.0
tr04-0882,0.8979591836734694,0.88,0.9166666666666666,24.0
tr04-0887,0.7999999999999999,0.72,0.9,20.0
tr04-0900,0.9230769230769231,0.9,0.9473684210526315,19.0
tr04-0909,1.0,1.0,1.0,14.0
tr04-0913,0.6666666666666666,1.0,0.5,14.0
tr04-0915,0.8135593220338984,0.6857142857142857,1.0,24.0
tr04-0931,0.9375,0.9375,0.9375,16.0
tr04-0939,0.9047619047619048,0.8636363636363636,0.95,20.0
tr04-0959,0.8333333333333334,0.8333333333333334,0.8333333333333334,24.0
tr04-0960,0.9,0.8571428571428571,0.9473684210526315,19.0
tr04-0963,0.8571428571428571,0.75,1.0,24.0
tr04-0966,1.0,1.0,1.0,14.0
tr04-0983,0.9795918367346939,0.96,1.0,24.0
tr04-1006,0.679245283018868,0.6206896551724138,0.75,24.0
tr04-1013,0.7906976744186046,0.7083333333333334,0.8947368421052632,19.0
tr04-1021,0.7647058823529411,0.8125,0.7222222222222222,18.0
tr04-1023,0.4285714285714285,0.75,0.3,20.0
tr04-1032,0.7142857142857143,0.8333333333333334,0.625,24.0
tr04-1034,0.7777777777777777,0.7,0.875,24.0
tr04-1064,0.888888888888889,0.9090909090909091,0.8695652173913043,23.0
tr04-1087,0.64,0.8888888888888888,0.5,16.0
tr04-1096,0.9787234042553191,1.0,0.9583333333333334,24.0
tr04-1097,0.7586206896551725,1.0,0.6111111111111112,18.0
tr04-1105,0.9,0.9473684210526315,0.8571428571428571,21.0
tr04-1117,0.9411764705882353,0.8888888888888888,1.0,24.0
tr05-0011,1.0,1.0,1.0,24.0
tr05-0028,0.8846153846153846,0.7931034482758621,1.0,23.0
tr05-0048,0.9523809523809523,0.9090909090909091,1.0,20.0
tr05-0067,0.9545454545454546,0.9545454545454546,0.9545454545454546,22.0
tr05-0069,0.8148148148148148,0.7333333333333333,0.9166666666666666,24.0
tr05-0074,0.8571428571428571,0.782608695652174,0.9473684210526315,19.0
tr05-0114,0.92,0.8518518518518519,1.0,23.0
tr05-0119,0.8695652173913043,0.8695652173913043,0.8695652173913043,23.0
tr05-0174,0.875,0.8076923076923077,0.9545454545454546,22.0
tr05-0193,0.9,0.8571428571428571,0.9473684210526315,19.0
tr05-0206,0.8333333333333333,0.7142857142857143,1.0,15.0
tr05-0226,0.9285714285714286,0.8666666666666667,1.0,13.0
tr05-0243,0.7924528301886793,0.7241379310344828,0.875,24.0
tr05-0253,0.8749999999999999,0.84,0.9130434782608695,23.0
tr05-0256,0.7407407407407407,1.0,0.5882352941176471,17.0
tr05-0260,0.8936170212765958,0.84,0.9545454545454546,22.0
tr05-0266,0.9795918367346939,0.96,1.0,24.0
tr05-0284,0.896551724137931,0.9285714285714286,0.8666666666666667,15.0
tr05-0292,0.9166666666666666,0.9166666666666666,0.9166666666666666,24.0
tr05-0301,0.823529411764706,0.7777777777777778,0.875,24.0
tr05-0312,0.7692307692307692,0.7142857142857143,0.8333333333333334,24.0
tr05-0315,0.9302325581395349,0.8695652173913043,1.0,20.0
tr05-0326,0.923076923076923,0.8571428571428571,1.0,24.0
tr05-0327,0.8979591836734695,0.8461538461538461,0.9565217391304348,23.0
tr05-0332,0.9302325581395349,0.9523809523809523,0.9090909090909091,22.0
tr05-0334,0.9795918367346939,0.96,1.0,24.0
tr05-0356,0.9166666666666666,0.9166666666666666,0.9166666666666666,24.0
tr05-0379,1.0,1.0,1.0,12.0
tr05-0400,0.7826086956521738,0.75,0.8181818181818182,22.0
tr05-0403,0.8571428571428572,0.8076923076923077,0.9130434782608695,23.0
tr05-0404,0.8372093023255814,0.9,0.782608695652174,23.0
tr05-0405,0.7407407407407407,1.0,0.5882352941176471,17.0
tr05-0411,0.717948717948718,0.7,0.7368421052631579,19.0
tr05-0418,0.8947368421052632,0.9444444444444444,0.85,20.0
tr05-0443,0.9411764705882353,0.9411764705882353,0.9411764705882353,17.0
tr05-0449,0.9787234042553191,0.9583333333333334,1.0,23.0
tr05-0456,0.8461538461538461,0.7857142857142857,0.9166666666666666,24.0
tr05-0459,0.8372093023255814,0.8181818181818182,0.8571428571428571,21.0
tr05-0471,0.8,0.6666666666666666,1.0,24.0
tr05-0497,0.9285714285714286,0.9285714285714286,0.9285714285714286,14.0
tr05-0501,0.8260869565217391,0.8260869565217391,0.8260869565217391,23.0
tr05-0531,0.8205128205128205,0.8888888888888888,0.7619047619047619,21.0
tr05-0549,0.7894736842105263,1.0,0.6521739130434783,23.0
tr05-0550,1.0,1.0,1.0,17.0
tr05-0570,0.7317073170731706,0.75,0.7142857142857143,21.0
tr05-0572,0.9600000000000001,1.0,0.9230769230769231,13.0
tr05-0574,1.0,1.0,1.0,18.0
tr05-0596,0.888888888888889,0.8,1.0,16.0
tr05-0610,0.8421052631578948,0.8888888888888888,0.8,20.0
tr05-0613,0.6808510638297872,0.64,0.7272727272727273,22.0
tr05-0627,0.7878787878787878,0.9285714285714286,0.6842105263157895,19.0
tr05-0629,0.8461538461538461,0.7857142857142857,0.9166666666666666,24.0
tr05-0635,0.8823529411764706,1.0,0.7894736842105263,19.0
tr05-0646,0.8085106382978724,0.7916666666666666,0.8260869565217391,23.0
tr05-0647,0.7916666666666666,0.7916666666666666,0.7916666666666666,24.0
tr05-0652,0.7843137254901961,0.7407407407407407,0.8333333333333334,24.0
tr05-0655,0.8260869565217391,0.8260869565217391,0.8260869565217391,23.0
tr05-0664,0.9387755102040817,0.92,0.9583333333333334,24.0
tr05-0685,0.6111111111111112,0.6875,0.55,20.0
tr05-0686,0.8421052631578947,0.9411764705882353,0.7619047619047619,21.0
tr05-0701,0.9302325581395349,0.9090909090909091,0.9523809523809523,21.0
tr05-0707,0.8571428571428571,0.8571428571428571,0.8571428571428571,21.0
tr05-0715,0.8095238095238096,0.9444444444444444,0.7083333333333334,24.0
tr05-0724,0.8421052631578948,0.7272727272727273,1.0,24.0
tr05-0738,0.8823529411764706,1.0,0.7894736842105263,19.0
tr05-0739,0.9387755102040817,0.92,0.9583333333333334,24.0
tr05-0744,0.8372093023255814,0.8571428571428571,0.8181818181818182,22.0
tr05-0782,0.846153846153846,1.0,0.7333333333333333,15.0
tr05-0784,0.6060606060606061,0.5882352941176471,0.625,16.0
tr05-0800,0.7741935483870968,0.8571428571428571,0.7058823529411765,17.0
tr05-0812,0.7894736842105263,0.9375,0.6818181818181818,22.0
tr05-0827,0.9500000000000001,0.9047619047619048,1.0,19.0
tr05-0838,0.9523809523809523,0.9090909090909091,1.0,20.0
tr05-0849,0.8936170212765957,0.9130434782608695,0.875,24.0
tr05-0857,0.8837209302325582,0.8636363636363636,0.9047619047619048,21.0
tr05-0860,0.9387755102040817,0.92,0.9583333333333334,24.0
tr05-0864,0.7142857142857143,0.9090909090909091,0.5882352941176471,17.0
tr05-0880,0.6666666666666666,1.0,0.5,24.0
tr05-0900,0.761904761904762,1.0,0.6153846153846154,13.0
tr05-0905,0.5161290322580645,1.0,0.34782608695652173,23.0
tr05-0910,0.9090909090909091,1.0,0.8333333333333334,12.0
tr05-0924,0.9361702127659574,0.9565217391304348,0.9166666666666666,24.0
tr05-0932,0.7333333333333334,0.7857142857142857,0.6875,16.0
tr05-0949,0.9268292682926829,1.0,0.8636363636363636,22.0
tr05-0994,1.0,1.0,1.0,13.0
tr05-1034,1.0,1.0,1.0,21.0
tr05-1042,0.742857142857143,0.9285714285714286,0.6190476190476191,21.0
tr05-1060,0.8421052631578948,0.8,0.8888888888888888,18.0
tr05-1097,0.5405405405405406,0.7692307692307693,0.4166666666666667,24.0
tr05-1112,0.723404255319149,0.7391304347826086,0.7083333333333334,24.0
tr05-1118,0.9019607843137256,0.8518518518518519,0.9583333333333334,24.0
tr05-1121,0.9500000000000001,1.0,0.9047619047619048,21.0
tr05-1128,0.9361702127659574,0.9565217391304348,0.9166666666666666,24.0
tr05-1129,0.8363636363636363,0.71875,1.0,23.0
tr05-1135,0.888888888888889,0.8695652173913043,0.9090909090909091,22.0
tr05-1146,0.967741935483871,1.0,0.9375,16.0
tr05-1149,1.0,1.0,1.0,24.0
tr05-1163,0.9387755102040817,0.92,0.9583333333333334,24.0
tr05-1167,0.8837209302325582,0.7916666666666666,1.0,19.0
tr05-1176,0.888888888888889,0.8,1.0,24.0
tr05-1183,0.8571428571428571,0.8571428571428571,0.8571428571428571,21.0
tr05-1190,0.6428571428571429,0.9,0.5,18.0
tr05-1197,0.7999999999999999,0.8571428571428571,0.75,24.0
tr05-1222,0.8648648648648648,0.9411764705882353,0.8,20.0
tr05-1225,0.9302325581395349,0.8695652173913043,1.0,20.0
tr05-1229,0.8627450980392156,0.8148148148148148,0.9166666666666666,24.0
tr05-1233,0.8679245283018867,0.7931034482758621,0.9583333333333334,24.0
tr05-1234,0.9600000000000001,0.9230769230769231,1.0,24.0
tr05-1238,0.9375,0.8823529411764706,1.0,15.0
tr05-1243,0.7857142857142856,0.7333333333333333,0.8461538461538461,13.0
tr05-1247,0.9333333333333332,0.9545454545454546,0.9130434782608695,23.0
tr05-1268,0.823529411764706,0.7777777777777778,0.875,24.0
tr05-1270,0.8148148148148148,0.7333333333333333,0.9166666666666666,24.0
tr05-1277,0.4,0.5,0.3333333333333333,18.0
tr05-1302,0.7272727272727272,0.8,0.6666666666666666,18.0
tr05-1313,0.875,0.875,0.875,24.0
tr05-1317,0.6250000000000001,0.7142857142857143,0.5555555555555556,18.0
tr05-1324,0.8846153846153847,0.8214285714285714,0.9583333333333334,24.0
tr05-1356,0.8823529411764706,0.8823529411764706,0.8823529411764706,17.0
tr05-1371,0.7777777777777778,0.7777777777777778,0.7777777777777778,18.0
tr05-1372,0.9,0.8181818181818182,1.0,18.0
tr05-1375,0.8510638297872342,0.8,0.9090909090909091,22.0
tr05-1377,0.8421052631578948,0.8,0.8888888888888888,18.0
tr05-1386,0.9583333333333334,0.9583333333333334,0.9583333333333334,24.0
tr05-1404,0.9565217391304348,1.0,0.9166666666666666,24.0
tr05-1406,0.8181818181818182,0.75,0.9,20.0
tr05-1419,0.7368421052631579,0.7368421052631579,0.7368421052631579,19.0
tr05-1434,1.0,1.0,1.0,16.0
tr05-1452,0.8214285714285714,0.71875,0.9583333333333334,24.0
tr05-1453,0.8292682926829268,0.7083333333333334,1.0,17.0
tr05-1457,0.8571428571428571,0.8823529411764706,0.8333333333333334,18.0
tr05-1464,0.9090909090909091,1.0,0.8333333333333334,18.0
tr05-1475,0.8571428571428572,0.8181818181818182,0.9,20.0
tr05-1489,0.7000000000000001,0.6363636363636364,0.7777777777777778,18.0
tr05-1510,0.6875000000000001,0.7857142857142857,0.6111111111111112,18.0
tr05-1513,0.8627450980392156,0.8148148148148148,0.9166666666666666,24.0
tr05-1521,0.9166666666666666,0.9166666666666666,0.9166666666666666,24.0
tr05-1528,0.923076923076923,0.8571428571428571,1.0,24.0
tr05-1547,0.8799999999999999,0.9166666666666666,0.8461538461538461,13.0
tr05-1551,0.7499999999999999,0.9230769230769231,0.631578947368421,19.0
tr05-1554,0.9795918367346939,0.96,1.0,24.0
tr05-1558,0.6842105263157895,0.7647058823529411,0.6190476190476191,21.0
tr05-1570,1.0,1.0,1.0,24.0
tr05-1572,0.9375,0.8823529411764706,1.0,15.0
tr05-1575,0.823529411764706,0.7777777777777778,0.875,24.0
tr05-1591,0.6666666666666666,1.0,0.5,12.0
tr05-1604,0.92,0.8518518518518519,1.0,23.0
tr05-1624,0.8648648648648648,0.8,0.9411764705882353,17.0
tr05-1649,0.8518518518518519,0.7419354838709677,1.0,23.0
tr05-1653,0.8695652173913043,0.9090909090909091,0.8333333333333334,12.0
tr05-1659,0.48,0.8571428571428571,0.3333333333333333,18.0
tr05-1675,0.9019607843137256,0.8518518518518519,0.9583333333333334,24.0
tr05-1681,0.9787234042553191,0.9583333333333334,1.0,23.0
tr05-1684,1.0,1.0,1.0,16.0
tr05-1687,0.5882352941176471,0.9090909090909091,0.43478260869565216,23.0
tr05-1688,0.888888888888889,0.8,1.0,12.0
tr05-1689,0.9302325581395349,0.8695652173913043,1.0,20.0
tr05-1716,0.7692307692307693,0.8823529411764706,0.6818181818181818,22.0
tr05-1720,0.9,0.8181818181818182,1.0,18.0
tr05-1728,0.8181818181818182,0.9,0.75,24.0
tr06-0014,0.8292682926829269,0.8947368421052632,0.7727272727272727,22.0
tr06-0017,0.7692307692307692,0.7142857142857143,0.8333333333333334,24.0
tr06-0041,0.8181818181818182,0.8571428571428571,0.782608695652174,23.0
tr06-0050,0.9767441860465117,0.9545454545454546,1.0,21.0
tr06-0062,0.6428571428571429,0.75,0.5625,16.0
tr06-0084,0.8727272727272727,0.7741935483870968,1.0,24.0
tr06-0103,0.8292682926829269,0.8947368421052632,0.7727272727272727,22.0
tr06-0107,0.5964912280701754,0.4594594594594595,0.85,20.0
tr06-0108,0.9166666666666666,0.9166666666666666,0.9166666666666666,24.0
tr06-0117,0.8000000000000002,0.9230769230769231,0.7058823529411765,17.0
tr06-0122,0.7333333333333334,0.8461538461538461,0.6470588235294118,17.0
tr06-0126,0.8148148148148148,0.8461538461538461,0.7857142857142857,14.0
tr06-0154,0.5915492957746479,0.4375,0.9130434782608695,23.0
tr06-0166,0.6896551724137931,0.7692307692307693,0.625,16.0
tr06-0168,0.9019607843137256,0.8518518518518519,0.9583333333333334,24.0
tr06-0177,0.7647058823529411,0.8125,0.7222222222222222,18.0
tr06-0182,0.8444444444444444,0.9047619047619048,0.7916666666666666,24.0
tr06-0193,0.8372093023255814,0.9473684210526315,0.75,24.0
tr06-0202,0.888888888888889,0.9523809523809523,0.8333333333333334,24.0
tr06-0204,0.8461538461538461,0.8461538461538461,0.8461538461538461,13.0
tr06-0221,0.8387096774193549,0.8666666666666667,0.8125,16.0
tr06-0232,1.0,1.0,1.0,18.0
tr06-0234,0.967741935483871,0.9375,1.0,15.0
tr06-0242,0.975609756097561,0.9523809523809523,1.0,20.0
tr06-0249,0.6666666666666665,0.75,0.6,15.0
tr06-0262,1.0,1.0,1.0,24.0
tr06-0282,0.923076923076923,1.0,0.8571428571428571,14.0
tr06-0302,0.7058823529411764,0.8571428571428571,0.6,20.0
tr06-0307,0.7826086956521738,0.75,0.8181818181818182,22.0
tr06-0313,0.7857142857142857,0.9166666666666666,0.6875,16.0
tr06-0315,0.8333333333333334,0.8333333333333334,0.8333333333333334,18.0
tr06-0317,0.8292682926829269,0.9444444444444444,0.7391304347826086,23.0
tr06-0318,0.6976744186046512,0.7894736842105263,0.625,24.0
tr06-0332,0.851063829787234,0.8695652173913043,0.8333333333333334,24.0
tr06-0333,0.6829268292682926,0.6363636363636364,0.7368421052631579,19.0
tr06-0347,0.8333333333333334,0.8333333333333334,0.8333333333333334,24.0
tr06-0362,0.9333333333333333,1.0,0.875,24.0
tr06-0363,1.0,1.0,1.0,24.0
tr06-0390,0.7741935483870968,0.7058823529411765,0.8571428571428571,14.0
tr06-0397,0.918918918918919,0.9444444444444444,0.8947368421052632,19.0
tr06-0404,0.9600000000000001,0.9230769230769231,1.0,12.0
tr06-0418,0.9166666666666666,0.9166666666666666,0.9166666666666666,24.0
tr06-0429,0.7777777777777777,0.6774193548387096,0.9130434782608695,23.0
tr06-0447,1.0,1.0,1.0,13.0
tr06-0449,0.7547169811320754,0.6451612903225806,0.9090909090909091,22.0
tr06-0452,0.9565217391304348,1.0,0.9166666666666666,24.0
tr06-0475,0.6857142857142856,0.9230769230769231,0.5454545454545454,22.0
tr06-0488,0.888888888888889,1.0,0.8,15.0
tr06-0503,0.8,0.782608695652174,0.8181818181818182,22.0
tr06-0515,0.9565217391304348,1.0,0.9166666666666666,12.0
tr06-0517,0.8333333333333334,0.8333333333333334,0.8333333333333334,24.0
tr06-0532,0.8648648648648649,0.8888888888888888,0.8421052631578947,19.0
tr06-0536,0.6153846153846153,0.5217391304347826,0.75,16.0
tr06-0538,0.7199999999999999,0.6923076923076923,0.75,24.0
tr06-0544,0.6666666666666666,0.7142857142857143,0.625,24.0
tr06-0547,0.76,0.6785714285714286,0.8636363636363636,22.0
tr06-0556,0.7500000000000001,0.7894736842105263,0.7142857142857143,21.0
tr06-0567,0.896551724137931,0.9285714285714286,0.8666666666666667,15.0
tr06-0570,0.7441860465116279,0.7272727272727273,0.7619047619047619,21.0
tr06-0576,0.9411764705882353,0.8888888888888888,1.0,24.0
tr06-0579,0.9130434782608696,0.84,1.0,21.0
tr06-0584,0.75,0.75,0.75,24.0
tr06-0609,0.7391304347826085,0.7391304347826086,0.7391304347826086,23.0
tr06-0627,0.5714285714285714,0.8,0.4444444444444444,18.0
tr06-0644,0.7307692307692307,0.6785714285714286,0.7916666666666666,24.0
tr06-0677,0.8749999999999999,0.9333333333333333,0.8235294117647058,17.0
tr06-0694,0.9411764705882353,0.9411764705882353,0.9411764705882353,17.0
tr06-0696,0.6153846153846153,0.8888888888888888,0.47058823529411764,17.0
tr06-0705,0.8333333333333333,0.8,0.8695652173913043,23.0
tr06-0709,0.8292682926829268,0.7083333333333334,1.0,17.0
tr06-0721,0.8333333333333333,0.8,0.8695652173913043,23.0
tr06-0750,0.84,0.75,0.9545454545454546,22.0
tr06-0764,0.9361702127659574,0.9565217391304348,0.9166666666666666,24.0
tr06-0769,0.9411764705882353,0.8888888888888888,1.0,24.0
tr06-0771,1.0,1.0,1.0,24.0
tr06-0785,0.7272727272727272,0.64,0.8421052631578947,19.0
tr06-0791,0.9500000000000001,0.95,0.95,20.0
tr06-0802,0.7272727272727272,0.7619047619047619,0.6956521739130435,23.0
tr06-0812,0.9,0.9,0.9,20.0
tr06-0815,0.9189189189189189,0.85,1.0,17.0
tr06-0825,0.8461538461538461,0.9166666666666666,0.7857142857142857,14.0
tr06-0827,0.7540983606557377,0.6216216216216216,0.9583333333333334,24.0
tr06-0843,0.8717948717948718,0.8095238095238095,0.9444444444444444,18.0
tr06-0850,0.4090909090909091,0.45,0.375,24.0
tr06-0862,0.8,0.7692307692307693,0.8333333333333334,12.0
tr06-0865,0.9056603773584906,0.8275862068965517,1.0,24.0
tr06-0876,0.7636363636363636,0.6774193548387096,0.875,24.0
tr06-0880,0.9600000000000001,0.9230769230769231,1.0,24.0
tr06-0883,0.7692307692307692,0.7894736842105263,0.75,20.0
tr06-1010,0.8936170212765957,0.8076923076923077,1.0,21.0
tr06-1117,0.9,0.8571428571428571,0.9473684210526315,19.0
tr06-1123,0.9166666666666666,0.9166666666666666,0.9166666666666666,24.0
tr07-0016,0.631578947368421,0.6666666666666666,0.6,20.0
tr07-0027,0.9411764705882353,0.8888888888888888,1.0,24.0
tr07-0030,0.8799999999999999,0.8461538461538461,0.9166666666666666,24.0
tr07-0034,0.65,0.7222222222222222,0.5909090909090909,22.0
tr07-0036,0.6122448979591837,0.5769230769230769,0.6521739130434783,23.0
tr07-0040,0.8421052631578947,0.9411764705882353,0.7619047619047619,21.0
tr07-0043,0.7555555555555556,0.8095238095238095,0.7083333333333334,24.0
tr07-0056,0.7647058823529412,1.0,0.6190476190476191,21.0
tr07-0084,0.64,0.6153846153846154,0.6666666666666666,24.0
tr07-0100,0.967741935483871,1.0,0.9375,16.0
tr07-0102,0.8095238095238095,0.8947368421052632,0.7391304347826086,23.0
tr07-0105,0.7083333333333334,0.7083333333333334,0.7083333333333334,24.0
tr07-0123,0.7659574468085107,0.75,0.782608695652174,23.0
tr07-0125,0.6250000000000001,0.7142857142857143,0.5555555555555556,18.0
tr07-0126,0.8085106382978724,0.8260869565217391,0.7916666666666666,24.0
tr07-0127,0.7777777777777778,0.7777777777777778,0.7777777777777778,18.0
tr07-0153,0.92,0.8518518518518519,1.0,23.0
tr07-0162,0.9032258064516129,1.0,0.8235294117647058,17.0
tr07-0168,0.9387755102040816,0.8846153846153846,1.0,23.0
tr07-0178,0.6956521739130435,0.7272727272727273,0.6666666666666666,24.0
tr07-0179,0.619047619047619,0.7222222222222222,0.5416666666666666,24.0
tr07-0191,0.8846153846153847,0.8214285714285714,0.9583333333333334,24.0
tr07-0197,0.782608695652174,0.72,0.8571428571428571,21.0
tr07-0212,0.8846153846153847,0.8214285714285714,0.9583333333333334,24.0
tr07-0214,0.9268292682926829,0.95,0.9047619047619048,21.0
tr07-0231,0.7096774193548387,0.8461538461538461,0.6111111111111112,18.0
tr07-0236,0.9411764705882353,0.8888888888888888,1.0,24.0
tr07-0246,0.8636363636363636,0.8260869565217391,0.9047619047619048,21.0
tr07-0247,0.5945945945945946,0.55,0.6470588235294118,17.0
tr07-0257,0.5999999999999999,0.6923076923076923,0.5294117647058824,17.0
tr07-0262,0.8095238095238095,0.8947368421052632,0.7391304347826086,23.0
tr07-0281,1.0,1.0,1.0,24.0
tr07-0283,0.625,0.5263157894736842,0.7692307692307693,13.0
tr07-0291,0.29411764705882354,0.45454545454545453,0.21739130434782608,23.0
tr07-0293,0.9795918367346939,0.96,1.0,24.0
tr07-0325,0.7924528301886793,0.7241379310344828,0.875,24.0
tr07-0343,0.5833333333333334,0.7777777777777778,0.4666666666666667,15.0
tr07-0359,0.8484848484848485,0.8235294117647058,0.875,16.0
tr07-0380,0.8076923076923077,0.75,0.875,24.0
tr07-0394,0.6341463414634146,0.7647058823529411,0.5416666666666666,24.0
tr07-0401,0.9302325581395349,1.0,0.8695652173913043,23.0
tr07-0409,0.9787234042553191,1.0,0.9583333333333334,24.0
tr07-0416,0.8727272727272727,0.7741935483870968,1.0,24.0
tr07-0418,0.7027027027027027,0.7647058823529411,0.65,20.0
tr07-0451,0.888888888888889,0.8571428571428571,0.9230769230769231,13.0
tr07-0455,0.8823529411764706,0.7894736842105263,1.0,15.0
tr07-0458,0.9333333333333333,1.0,0.875,24.0
tr07-0466,0.8235294117647057,0.75,0.9130434782608695,23.0
tr07-0489,0.8695652173913043,0.9090909090909091,0.8333333333333334,24.0
tr07-0490,0.823529411764706,0.7777777777777778,0.875,24.0
tr07-0509,0.8421052631578948,0.8,0.8888888888888888,18.0
tr07-0517,0.8363636363636364,0.7419354838709677,0.9583333333333334,24.0
tr07-0540,0.888888888888889,0.8,1.0,24.0
tr07-0542,0.6666666666666666,0.7142857142857143,0.625,16.0
tr07-0549,0.39999999999999997,0.8333333333333334,0.2631578947368421,19.0
tr07-0564,0.8333333333333333,1.0,0.7142857142857143,21.0
tr07-0566,0.6382978723404256,0.625,0.6521739130434783,23.0
tr07-0568,0.5882352941176471,0.625,0.5555555555555556,18.0
tr07-0575,0.48484848484848486,0.5714285714285714,0.42105263157894735,19.0
tr07-0579,0.823529411764706,0.7777777777777778,0.875,24.0
tr07-0585,0.9565217391304348,0.9166666666666666,1.0,22.0
tr07-0586,0.8666666666666666,0.8125,0.9285714285714286,14.0
tr07-0593,0.5625000000000001,0.9,0.4090909090909091,22.0
tr07-0594,0.6666666666666667,0.875,0.5384615384615384,13.0
tr07-0601,0.8260869565217391,0.7916666666666666,0.8636363636363636,22.0
tr07-0602,0.8979591836734694,0.88,0.9166666666666666,24.0
tr07-0605,0.851063829787234,0.8333333333333334,0.8695652173913043,23.0
tr07-0610,0.9583333333333334,0.9583333333333334,0.9583333333333334,24.0
tr07-0615,0.92,0.8518518518518519,1.0,23.0
tr07-0625,0.4,0.6666666666666666,0.2857142857142857,21.0
tr07-0642,0.9375,0.9375,0.9375,16.0
tr07-0650,0.7428571428571429,0.8666666666666667,0.65,20.0
tr07-0662,0.7924528301886793,0.7241379310344828,0.875,24.0
tr07-0665,0.6875000000000001,0.7857142857142857,0.6111111111111112,18.0
tr07-0675,0.8799999999999999,0.8461538461538461,0.9166666666666666,24.0
tr07-0681,0.6530612244897959,0.64,0.6666666666666666,24.0
tr07-0691,0.6666666666666665,0.6,0.75,12.0
tr07-0703,0.875,0.8076923076923077,0.9545454545454546,22.0
tr07-0709,0.6363636363636364,0.875,0.5,14.0
tr07-0718,0.8444444444444444,0.8260869565217391,0.8636363636363636,22.0
tr07-0752,0.8799999999999999,0.8461538461538461,0.9166666666666666,24.0
tr07-0761,0.962962962962963,0.9285714285714286,1.0,13.0
tr07-0770,0.6511627906976744,0.6666666666666666,0.6363636363636364,22.0
tr07-0771,0.76,0.7307692307692307,0.7916666666666666,24.0
tr07-0782,0.6829268292682927,0.7777777777777778,0.6086956521739131,23.0
tr07-0786,0.8627450980392156,0.7586206896551724,1.0,22.0
tr07-0796,0.8717948717948718,0.7727272727272727,1.0,17.0
tr07-0804,0.816326530612245,0.8,0.8333333333333334,24.0
tr07-0820,0.8260869565217391,0.8636363636363636,0.7916666666666666,24.0
tr07-0828,0.8648648648648648,1.0,0.7619047619047619,21.0
tr07-0830,1.0,1.0,1.0,15.0
tr07-0841,0.9166666666666666,0.9166666666666666,0.9166666666666666,24.0
tr07-0848,0.888888888888889,0.9090909090909091,0.8695652173913043,23.0
tr07-0861,0.9411764705882353,0.8888888888888888,1.0,24.0
tr07-0865,0.8823529411764706,0.7894736842105263,1.0,15.0
tr07-0874,0.6500000000000001,0.6842105263157895,0.6190476190476191,21.0
tr07-0891,0.7096774193548387,0.9166666666666666,0.5789473684210527,19.0
tr07-0894,0.851063829787234,0.8695652173913043,0.8333333333333334,24.0
tr07-0895,0.972972972972973,0.9473684210526315,1.0,18.0
tr07-0902,0.9545454545454545,0.9130434782608695,1.0,21.0
tr07-0906,0.84,0.75,0.9545454545454546,22.0
tr07-0909,0.84,0.7777777777777778,0.9130434782608695,23.0
tr07-0913,0.8163265306122449,0.7692307692307693,0.8695652173913043,23.0
tr07-0918,1.0,1.0,1.0,19.0
tr08-0010,0.851063829787234,0.8695652173913043,0.8333333333333334,24.0
tr08-0012,0.8148148148148148,0.7333333333333333,0.9166666666666666,12.0
tr08-0021,0.9411764705882353,0.8888888888888888,1.0,24.0
tr08-0030,0.85,0.9444444444444444,0.7727272727272727,22.0
tr08-0105,0.8333333333333334,0.8333333333333334,0.8333333333333334,24.0
tr08-0111,0.8,0.7692307692307693,0.8333333333333334,24.0
tr08-0113,0.7368421052631577,0.7777777777777778,0.7,20.0
tr08-0137,0.8571428571428571,0.8571428571428571,0.8571428571428571,14.0
tr08-0139,0.8085106382978724,0.76,0.8636363636363636,22.0
tr08-0140,0.9199999999999999,0.8846153846153846,0.9583333333333334,24.0
tr08-0156,0.4999999999999999,0.48,0.5217391304347826,23.0
tr08-0157,0.8636363636363636,0.9047619047619048,0.8260869565217391,23.0
tr08-0159,0.9130434782608695,0.9545454545454546,0.875,24.0
tr08-0168,0.8108108108108109,0.7894736842105263,0.8333333333333334,18.0
tr08-0183,0.72,0.6666666666666666,0.782608695652174,23.0
tr08-0192,0.7333333333333334,0.6875,0.7857142857142857,14.0
tr08-0214,0.9,0.9,0.9,20.0
tr08-0245,0.8780487804878049,0.9473684210526315,0.8181818181818182,22.0
tr08-0256,0.9777777777777777,1.0,0.9565217391304348,23.0
tr08-0266,1.0,1.0,1.0,16.0
tr08-0277,0.7906976744186046,0.85,0.7391304347826086,23.0
tr08-0280,0.972972972972973,0.9473684210526315,1.0,18.0
tr08-0287,0.8571428571428571,0.9230769230769231,0.8,15.0
tr08-0295,0.7931034482758621,0.6764705882352942,0.9583333333333334,24.0
tr08-0303,0.7894736842105262,0.8333333333333334,0.75,20.0
tr08-0310,0.6956521739130435,0.8888888888888888,0.5714285714285714,14.0
tr08-0314,0.5641025641025642,0.6470588235294118,0.5,22.0
tr08-0315,0.8135593220338984,0.6857142857142857,1.0,24.0
tr08-0336,0.9411764705882353,0.8888888888888888,1.0,24.0
tr08-0347,0.9166666666666666,0.9166666666666666,0.9166666666666666,24.0
tr08-0348,0.888888888888889,0.9090909090909091,0.8695652173913043,23.0
tr08-0351,0.7307692307692307,0.6785714285714286,0.7916666666666666,24.0
tr08-0353,0.7547169811320754,0.6451612903225806,0.9090909090909091,22.0
tr08-0356,0.5,0.6666666666666666,0.4,20.0
tr09-0040,0.7906976744186046,0.85,0.7391304347826086,23.0
tr09-0044,0.851063829787234,0.8695652173913043,0.8333333333333334,24.0
tr09-0049,0.9795918367346939,0.96,1.0,24.0
tr09-0050,0.6818181818181818,0.75,0.625,24.0
tr09-0051,0.7272727272727273,1.0,0.5714285714285714,21.0
tr09-0065,0.8260869565217391,0.8636363636363636,0.7916666666666666,24.0
tr09-0068,0.7619047619047619,0.7619047619047619,0.7619047619047619,21.0
tr09-0070,0.9090909090909091,1.0,0.8333333333333334,18.0
tr09-0082,0.962962962962963,1.0,0.9285714285714286,14.0
tr09-0086,0.8846153846153847,0.8214285714285714,0.9583333333333334,24.0
tr09-0122,0.7,0.6666666666666666,0.7368421052631579,19.0
tr09-0129,0.8571428571428571,0.9473684210526315,0.782608695652174,23.0
tr09-0159,0.8085106382978724,0.7916666666666666,0.8260869565217391,23.0
tr09-0175,0.7317073170731706,0.75,0.7142857142857143,21.0
tr09-0186,0.8372093023255814,0.8571428571428571,0.8181818181818182,22.0
tr09-0205,0.9545454545454546,0.9545454545454546,0.9545454545454546,22.0
tr09-0217,0.8936170212765958,0.84,0.9545454545454546,22.0
tr09-0220,0.9199999999999999,0.8846153846153846,0.9583333333333334,24.0
tr09-0237,0.8936170212765957,0.9130434782608695,0.875,24.0
tr09-0246,0.8947368421052632,0.85,0.9444444444444444,18.0
tr09-0296,0.9333333333333332,0.9545454545454546,0.9130434782608695,23.0
tr09-0328,0.7272727272727272,0.7619047619047619,0.6956521739130435,23.0
tr09-0331,0.6818181818181818,0.75,0.625,24.0
tr09-0334,0.7894736842105262,0.8823529411764706,0.7142857142857143,21.0
tr09-0423,0.972972972972973,1.0,0.9473684210526315,19.0
tr09-0436,0.8666666666666667,0.8666666666666667,0.8666666666666667,15.0
tr09-0453,0.7727272727272727,0.85,0.7083333333333334,24.0
tr09-0469,0.9375,0.8823529411764706,1.0,15.0
tr09-0473,0.8444444444444444,0.9047619047619048,0.7916666666666666,24.0
tr09-0478,0.9090909090909091,1.0,0.8333333333333334,18.0
tr09-0489,0.9565217391304348,1.0,0.9166666666666666,24.0
tr09-0507,0.7727272727272727,0.7727272727272727,0.7727272727272727,22.0
tr09-0511,0.9056603773584906,0.8275862068965517,1.0,24.0
tr09-0520,0.9565217391304348,0.9166666666666666,1.0,22.0
tr09-0527,0.588235294117647,0.7142857142857143,0.5,20.0
tr09-0533,0.4117647058823529,0.5833333333333334,0.3181818181818182,22.0
tr09-0541,0.875,0.875,0.875,24.0
tr09-0553,0.8148148148148148,1.0,0.6875,16.0
tr09-0558,0.8205128205128205,0.7272727272727273,0.9411764705882353,17.0
tr09-0567,0.3870967741935484,0.6666666666666666,0.2727272727272727,22.0
tr09-0568,0.4375,0.5833333333333334,0.35,20.0
tr09-0575,0.8518518518518519,0.7666666666666667,0.9583333333333334,24.0
tr09-0580,0.8695652173913043,0.8695652173913043,0.8695652173913043,23.0
tr09-0593,0.7391304347826088,0.7083333333333334,0.7727272727272727,22.0
tr09-0600,0.9411764705882353,0.8888888888888888,1.0,24.0
tr09-0636,0.9795918367346939,0.96,1.0,24.0
tr09-0647,0.7547169811320755,0.6896551724137931,0.8333333333333334,24.0
tr10-0006,0.6521739130434783,0.6818181818181818,0.625,24.0
tr10-0036,0.9090909090909091,1.0,0.8333333333333334,18.0
tr10-0044,0.8095238095238096,0.9444444444444444,0.7083333333333334,24.0
tr10-0047,0.7142857142857143,1.0,0.5555555555555556,18.0
tr10-0059,0.8461538461538461,0.7586206896551724,0.9565217391304348,23.0
tr10-0077,0.5925925925925927,0.47058823529411764,0.8,20.0
tr10-0084,0.5263157894736842,0.8333333333333334,0.38461538461538464,13.0
tr10-0094,0.7083333333333334,0.7083333333333334,0.7083333333333334,24.0
tr10-0108,0.8780487804878049,0.8181818181818182,0.9473684210526315,19.0
tr10-0114,0.8421052631578948,0.7272727272727273,1.0,24.0
tr10-0141,0.918918918918919,0.9444444444444444,0.8947368421052632,19.0
tr10-0169,0.7272727272727272,0.8,0.6666666666666666,24.0
tr10-0191,0.7906976744186046,0.8095238095238095,0.7727272727272727,22.0
tr10-0247,0.8076923076923076,0.7241379310344828,0.9130434782608695,23.0
tr10-0251,0.9375,0.9375,0.9375,16.0
tr10-0263,0.9361702127659574,0.9166666666666666,0.9565217391304348,23.0
tr10-0306,0.8571428571428572,0.8076923076923077,0.9130434782608695,23.0
tr10-0336,0.8571428571428571,0.8571428571428571,0.8571428571428571,14.0
tr10-0350,1.0,1.0,1.0,12.0
tr10-0363,0.761904761904762,0.8,0.7272727272727273,22.0
tr10-0368,0.5945945945945945,0.7333333333333333,0.5,22.0
tr10-0392,1.0,1.0,1.0,22.0
tr10-0423,0.7391304347826085,0.7391304347826086,0.7391304347826086,23.0
tr10-0442,0.8648648648648648,0.7619047619047619,1.0,16.0
tr10-0477,0.8571428571428572,0.84,0.875,24.0
tr10-0509,0.8571428571428572,0.9,0.8181818181818182,22.0
tr10-0511,0.7547169811320755,0.6896551724137931,0.8333333333333334,24.0
tr10-0512,0.8333333333333333,0.8823529411764706,0.7894736842105263,19.0
tr10-0536,0.7916666666666666,0.7307692307692307,0.8636363636363636,22.0
tr10-0554,0.8,0.7692307692307693,0.8333333333333334,24.0
tr10-0591,0.7843137254901961,0.7407407407407407,0.8333333333333334,24.0
tr10-0592,0.8260869565217391,0.8636363636363636,0.7916666666666666,24.0
tr10-0598,0.41025641025641024,0.5,0.34782608695652173,23.0
tr10-0621,0.8947368421052632,0.85,0.9444444444444444,18.0
tr10-0626,0.8372093023255814,0.9473684210526315,0.75,24.0
tr10-0628,0.8163265306122449,0.7692307692307693,0.8695652173913043,23.0
tr10-0635,0.7391304347826088,0.7727272727272727,0.7083333333333334,24.0
tr10-0707,0.9056603773584906,0.8275862068965517,1.0,24.0
tr10-0728,0.48780487804878053,0.5882352941176471,0.4166666666666667,24.0
tr10-0731,0.8387096774193548,1.0,0.7222222222222222,18.0
tr10-0740,0.888888888888889,0.8695652173913043,0.9090909090909091,22.0
tr10-0752,0.12121212121212123,0.16666666666666666,0.09523809523809523,21.0
tr10-0762,0.8947368421052632,0.8947368421052632,0.8947368421052632,19.0
tr10-0768,0.7272727272727272,0.8,0.6666666666666666,24.0
tr10-0771,0.7843137254901961,0.7407407407407407,0.8333333333333334,24.0
tr10-0808,0.7804878048780488,0.7272727272727273,0.8421052631578947,19.0
tr10-0853,0.6666666666666667,0.7692307692307693,0.5882352941176471,17.0
tr10-0864,0.7692307692307692,0.7142857142857143,0.8333333333333334,24.0
tr10-0869,0.9142857142857143,0.8421052631578947,1.0,16.0
tr10-0872,0.8571428571428572,0.7894736842105263,0.9375,16.0
tr11-0006,0.7317073170731707,0.6818181818181818,0.7894736842105263,19.0
tr11-0016,0.6842105263157895,0.7647058823529411,0.6190476190476191,21.0
tr11-0024,0.923076923076923,0.8571428571428571,1.0,24.0
tr11-0025,0.9545454545454545,1.0,0.9130434782608695,23.0
tr11-0029,0.9361702127659574,0.9166666666666666,0.9565217391304348,23.0
tr11-0042,0.9361702127659574,0.9565217391304348,0.9166666666666666,24.0
tr11-0050,0.9545454545454545,0.9130434782608695,1.0,21.0
tr11-0059,0.8823529411764706,0.7894736842105263,1.0,15.0
tr11-0064,0.6956521739130435,0.5925925925925926,0.8421052631578947,19.0
tr11-0072,0.761904761904762,0.8888888888888888,0.6666666666666666,24.0
tr11-0074,0.75,0.75,0.75,24.0
tr11-0080,0.888888888888889,0.9090909090909091,0.8695652173913043,23.0
tr11-0101,0.7058823529411765,0.75,0.6666666666666666,18.0
tr11-0120,0.923076923076923,0.8571428571428571,1.0,24.0
tr11-0125,1.0,1.0,1.0,15.0
tr11-0200,0.8163265306122449,0.7142857142857143,0.9523809523809523,21.0
tr11-0324,0.6938775510204083,0.68,0.7083333333333334,24.0
tr11-0326,0.923076923076923,0.8571428571428571,1.0,24.0
tr11-0334,0.8095238095238095,0.8947368421052632,0.7391304347826086,23.0
tr11-0335,0.5263157894736842,0.625,0.45454545454545453,22.0
tr11-0338,0.8333333333333333,1.0,0.7142857142857143,21.0
tr11-0339,0.7272727272727273,1.0,0.5714285714285714,21.0
tr11-0347,0.6842105263157895,0.8666666666666667,0.5652173913043478,23.0
tr11-0350,0.25,0.375,0.1875,16.0
tr11-0354,0.7692307692307692,0.8333333333333334,0.7142857142857143,21.0
tr11-0377,1.0,1.0,1.0,18.0
tr11-0403,0.7999999999999999,0.9411764705882353,0.6956521739130435,23.0
tr11-0432,0.9545454545454545,0.9130434782608695,1.0,21.0
tr11-0436,1.0,1.0,1.0,24.0
tr11-0452,0.923076923076923,1.0,0.8571428571428571,14.0
tr11-0457,0.6779661016949152,0.5714285714285714,0.8333333333333334,24.0
tr11-0459,0.9333333333333333,1.0,0.875,24.0
tr11-0471,0.9583333333333334,0.92,1.0,23.0
tr11-0479,0.7894736842105263,0.9375,0.6818181818181818,22.0
tr11-0481,1.0,1.0,1.0,12.0
tr11-0503,0.8085106382978724,0.8260869565217391,0.7916666666666666,24.0
tr11-0516,0.6511627906976745,0.7368421052631579,0.5833333333333334,24.0
tr11-0537,0.7142857142857143,0.8333333333333334,0.625,24.0
tr11-0563,0.8085106382978724,0.7916666666666666,0.8260869565217391,23.0
tr11-0565,0.7692307692307693,0.6818181818181818,0.8823529411764706,17.0
tr11-0573,0.5853658536585366,0.7058823529411765,0.5,24.0
tr11-0577,0.8076923076923077,0.75,0.875,24.0
tr11-0587,1.0,1.0,1.0,15.0
tr11-0590,0.65,0.7647058823529411,0.5652173913043478,23.0
tr11-0612,0.782608695652174,0.72,0.8571428571428571,21.0
tr11-0640,0.8727272727272727,0.7741935483870968,1.0,24.0
tr11-0644,0.888888888888889,0.8,1.0,24.0
tr11-0659,0.7428571428571429,0.8666666666666667,0.65,20.0
tr11-0676,0.8571428571428571,0.75,1.0,24.0
tr11-0708,0.888888888888889,0.9230769230769231,0.8571428571428571,14.0
tr11-0734,0.8400000000000001,0.8076923076923077,0.875,24.0
tr11-0736,0.9583333333333334,0.9583333333333334,0.9583333333333334,24.0
tr11-0767,0.8936170212765957,0.9130434782608695,0.875,24.0
tr11-0792,0.9047619047619047,0.8260869565217391,1.0,19.0
tr12-0003,1.0,1.0,1.0,24.0
tr12-0009,0.6956521739130435,0.8888888888888888,0.5714285714285714,14.0
tr12-0051,0.8846153846153847,0.8214285714285714,0.9583333333333334,24.0
tr12-0058,0.2666666666666667,1.0,0.15384615384615385,13.0
tr12-0061,0.7647058823529411,0.8125,0.7222222222222222,18.0
tr12-0064,0.6923076923076924,0.75,0.6428571428571429,14.0
tr12-0095,0.7222222222222223,0.8125,0.65,20.0
tr12-0106,0.8571428571428572,0.9,0.8181818181818182,22.0
tr12-0108,0.7142857142857143,0.6060606060606061,0.8695652173913043,23.0
tr12-0115,0.9600000000000001,1.0,0.9230769230769231,13.0
tr12-0120,0.8571428571428572,0.8076923076923077,0.9130434782608695,23.0
tr12-0121,0.7804878048780488,0.7619047619047619,0.8,20.0
tr12-0122,0.9743589743589743,1.0,0.95,20.0
tr12-0135,0.7333333333333334,0.8461538461538461,0.6470588235294118,17.0
tr12-0169,0.8461538461538461,0.7857142857142857,0.9166666666666666,24.0
tr12-0173,0.9130434782608696,0.84,1.0,21.0
tr12-0185,0.6470588235294118,0.8461538461538461,0.5238095238095238,21.0
tr12-0209,0.7647058823529412,0.7647058823529411,0.7647058823529411,17.0
tr12-0229,0.9032258064516129,1.0,0.8235294117647058,17.0
tr12-0241,0.9375,0.9375,0.9375,16.0
tr12-0243,0.5263157894736842,0.7142857142857143,0.4166666666666667,12.0
tr12-0244,0.9166666666666666,0.88,0.9565217391304348,23.0
tr12-0253,0.7692307692307692,0.7142857142857143,0.8333333333333334,24.0
tr12-0255,0.9019607843137256,0.8518518518518519,0.9583333333333334,24.0
tr12-0261,0.9333333333333333,0.875,1.0,14.0
tr12-0277,0.6829268292682926,0.7,0.6666666666666666,21.0
tr12-0279,0.8571428571428571,0.8823529411764706,0.8333333333333334,18.0
tr12-0299,0.6829268292682926,0.7368421052631579,0.6363636363636364,22.0
tr12-0308,0.6956521739130435,0.6153846153846154,0.8,20.0
tr12-0310,0.8085106382978724,0.8260869565217391,0.7916666666666666,24.0
tr12-0319,0.5625,0.8181818181818182,0.42857142857142855,21.0
tr12-0321,1.0,1.0,1.0,20.0
tr12-0339,0.7906976744186046,0.85,0.7391304347826086,23.0
tr12-0348,0.8571428571428572,0.9,0.8181818181818182,22.0
tr12-0363,0.8163265306122449,0.7692307692307693,0.8695652173913043,23.0
tr12-0364,0.8936170212765957,0.9130434782608695,0.875,24.0
tr12-0368,0.875,0.8076923076923077,0.9545454545454546,22.0
tr12-0375,0.711111111111111,0.6956521739130435,0.7272727272727273,22.0
tr12-0395,0.619047619047619,0.7222222222222222,0.5416666666666666,24.0
tr12-0404,0.8717948717948718,0.8947368421052632,0.85,20.0
tr12-0408,0.8387096774193549,0.8666666666666667,0.8125,16.0
tr12-0410,0.9523809523809523,0.9523809523809523,0.9523809523809523,21.0
tr12-0412,0.75,0.6666666666666666,0.8571428571428571,14.0
tr12-0414,0.9600000000000001,0.9230769230769231,1.0,24.0
tr12-0425,0.9411764705882353,0.8888888888888888,1.0,24.0
tr12-0426,0.888888888888889,0.8,1.0,24.0
tr12-0438,0.4848484848484849,0.6666666666666666,0.38095238095238093,21.0
tr12-0439,0.8292682926829269,0.85,0.8095238095238095,21.0
tr12-0440,0.923076923076923,0.8571428571428571,1.0,24.0
tr12-0441,0.625,0.7692307692307693,0.5263157894736842,19.0
tr12-0448,0.6153846153846153,0.8888888888888888,0.47058823529411764,17.0
tr12-0463,0.7317073170731708,0.8823529411764706,0.625,24.0
tr12-0476,0.5454545454545455,0.8181818181818182,0.4090909090909091,22.0
tr12-0477,0.851063829787234,0.8695652173913043,0.8333333333333334,24.0
tr12-0481,0.888888888888889,0.8,1.0,24.0
tr12-0490,0.851063829787234,0.8333333333333334,0.8695652173913043,23.0
tr12-0492,0.7,0.8235294117647058,0.6086956521739131,23.0
tr12-0493,0.6538461538461539,0.5666666666666667,0.7727272727272727,22.0
tr12-0497,0.7037037037037038,0.6333333333333333,0.7916666666666666,24.0
tr12-0503,0.9767441860465117,1.0,0.9545454545454546,22.0
tr12-0509,0.6341463414634148,0.6842105263157895,0.5909090909090909,22.0
tr12-0512,0.9361702127659574,0.9166666666666666,0.9565217391304348,23.0
tr12-0515,0.65,0.7222222222222222,0.5909090909090909,22.0
tr12-0519,0.7272727272727272,0.6956521739130435,0.7619047619047619,21.0
tr12-0520,0.9333333333333332,0.9545454545454546,0.9130434782608695,23.0
tr12-0522,0.923076923076923,0.8571428571428571,1.0,24.0
tr12-0530,0.9523809523809523,1.0,0.9090909090909091,22.0
tr12-0532,0.5142857142857143,0.75,0.391304347826087,23.0
tr12-0549,0.7333333333333334,0.8461538461538461,0.6470588235294118,17.0
tr12-0560,0.6666666666666666,0.7368421052631579,0.6086956521739131,23.0
tr12-0573,0.9696969696969697,0.9411764705882353,1.0,16.0
tr12-0607,0.6153846153846153,0.7272727272727273,0.5333333333333333,15.0
tr12-0619,0.7755102040816326,0.7307692307692307,0.8260869565217391,23.0
tr12-0646,0.8333333333333334,0.8333333333333334,0.8333333333333334,12.0
tr12-0682,0.5882352941176471,1.0,0.4166666666666667,24.0
tr12-0684,0.7924528301886793,0.7241379310344828,0.875,24.0
tr12-0685,0.909090909090909,0.9523809523809523,0.8695652173913043,23.0
tr12-0687,0.5454545454545454,0.5217391304347826,0.5714285714285714,21.0
tr12-0697,0.851063829787234,0.8695652173913043,0.8333333333333334,24.0
tr12-0804,0.8372093023255814,0.8181818181818182,0.8571428571428571,21.0
tr13-0056,0.7916666666666666,0.7916666666666666,0.7916666666666666,24.0
tr13-0058,0.7692307692307692,0.6666666666666666,0.9090909090909091,22.0
tr13-0069,0.611111111111111,0.9166666666666666,0.4583333333333333,24.0
tr13-0076,0.9302325581395349,0.9090909090909091,0.9523809523809523,21.0
tr13-0080,0.9600000000000001,0.9230769230769231,1.0,24.0
tr13-0084,0.6511627906976744,0.6666666666666666,0.6363636363636364,22.0
tr13-0093,0.8936170212765958,0.84,0.9545454545454546,22.0
tr13-0101,0.8571428571428571,0.75,1.0,24.0
tr13-0128,0.851063829787234,0.8695652173913043,0.8333333333333334,24.0
tr13-0129,0.8,0.7692307692307693,0.8333333333333334,24.0
tr13-0140,0.75,0.75,0.75,24.0
tr13-0145,0.9411764705882353,0.8888888888888888,1.0,24.0
tr13-0164,0.9,0.9473684210526315,0.8571428571428571,21.0
tr13-0170,0.8135593220338984,0.6857142857142857,1.0,24.0
tr13-0187,0.8571428571428571,0.9230769230769231,0.8,15.0
tr13-0204,0.7826086956521738,0.8181818181818182,0.75,24.0
tr13-0208,0.9696969696969697,0.9411764705882353,1.0,16.0
tr13-0212,1.0,1.0,1.0,14.0
tr13-0220,0.9795918367346939,0.96,1.0,24.0
tr13-0226,0.9696969696969697,1.0,0.9411764705882353,17.0
tr13-0250,0.8372093023255814,0.9,0.782608695652174,23.0
tr13-0255,0.7199999999999999,0.75,0.6923076923076923,13.0
tr13-0364,0.48484848484848486,0.5,0.47058823529411764,17.0
tr13-0372,0.6842105263157894,0.9285714285714286,0.5416666666666666,24.0
tr13-0374,0.7200000000000001,0.9,0.6,15.0
tr13-0379,0.5660377358490566,0.5,0.6521739130434783,23.0
tr13-0383,0.7692307692307692,0.7142857142857143,0.8333333333333334,24.0
tr13-0387,0.9199999999999999,0.8846153846153846,0.9583333333333334,24.0
tr13-0425,0.9090909090909091,1.0,0.8333333333333334,12.0
tr13-0438,0.8421052631578948,0.7272727272727273,1.0,24.0
tr13-0447,0.39999999999999997,0.8333333333333334,0.2631578947368421,19.0
tr13-0448,0.7659574468085107,0.782608695652174,0.75,24.0
tr13-0464,0.6,0.5769230769230769,0.625,24.0
tr13-0475,0.8275862068965517,0.7058823529411765,1.0,24.0
tr13-0492,0.8695652173913043,0.8695652173913043,0.8695652173913043,23.0
tr13-0493,0.9714285714285714,0.9444444444444444,1.0,17.0
tr13-0505,0.6842105263157895,0.7647058823529411,0.6190476190476191,21.0
tr13-0508,0.7666666666666666,0.6388888888888888,0.9583333333333334,24.0
tr13-0517,0.9523809523809523,0.9090909090909091,1.0,20.0
tr13-0525,0.9795918367346939,0.96,1.0,24.0
tr13-0544,0.8163265306122449,0.7407407407407407,0.9090909090909091,22.0
tr13-0547,0.9130434782608695,0.875,0.9545454545454546,22.0
tr13-0549,0.8846153846153847,0.8214285714285714,0.9583333333333334,24.0
tr13-0551,0.7999999999999999,0.9411764705882353,0.6956521739130435,23.0
tr13-0566,0.6808510638297872,0.6956521739130435,0.6666666666666666,24.0
tr13-0567,0.6666666666666666,0.7142857142857143,0.625,24.0
tr13-0576,0.962962962962963,1.0,0.9285714285714286,14.0
tr13-0589,0.8571428571428571,0.8,0.9230769230769231,13.0
tr13-0607,1.0,1.0,1.0,21.0
tr13-0615,0.76,0.7037037037037037,0.8260869565217391,23.0
tr13-0621,0.9387755102040817,0.92,0.9583333333333334,24.0
tr13-0627,0.8947368421052632,0.85,0.9444444444444444,18.0
tr13-0638,0.8387096774193549,0.8125,0.8666666666666667,15.0
tr13-0646,0.7058823529411765,0.75,0.6666666666666666,18.0
tr13-0653,0.7213114754098361,0.5945945945945946,0.9166666666666666,24.0
tr13-0681,0.8947368421052632,0.9444444444444444,0.85,20.0
tr13-0685,0.47058823529411764,1.0,0.3076923076923077,13.0
tr13-0686,0.7407407407407408,0.7142857142857143,0.7692307692307693,13.0
tr13-0801,0.9545454545454546,0.9545454545454546,0.9545454545454546,22.0
tr13-0819,0.7540983606557377,0.6216216216216216,0.9583333333333334,24.0
tr14-0011,0.9795918367346939,0.96,1.0,24.0
tr14-0016,0.9166666666666666,0.88,0.9565217391304348,23.0
tr14-0037,0.9795918367346939,0.96,1.0,24.0
tr14-0064,0.7843137254901961,0.7407407407407407,0.8333333333333334,24.0
tr14-0110,0.6808510638297872,0.6666666666666666,0.6956521739130435,23.0
tr14-0167,0.5999999999999999,0.6923076923076923,0.5294117647058824,17.0
tr14-0182,0.8181818181818182,0.9,0.75,24.0
tr14-0185,0.8750000000000001,1.0,0.7777777777777778,18.0
tr14-0193,0.9583333333333334,0.92,1.0,23.0
tr14-0206,1.0,1.0,1.0,24.0
tr14-0231,0.9600000000000001,0.9230769230769231,1.0,24.0
tr14-0240,0.9230769230769231,0.9473684210526315,0.9,20.0
tr14-0258,0.9142857142857143,1.0,0.8421052631578947,19.0
tr14-0268,0.8163265306122449,0.7692307692307693,0.8695652173913043,23.0
tr14-0272,0.8936170212765957,0.9130434782608695,0.875,24.0
tr14-0276,0.846153846153846,1.0,0.7333333333333333,15.0
tr14-0278,0.7142857142857143,0.7894736842105263,0.6521739130434783,23.0
tr14-0291,0.816326530612245,0.8,0.8333333333333334,24.0
micro avg,0.8316500952530077,0.8316500952530076,0.8316500952530076,38319.0
macro avg,0.8249204988764741,0.8449812649616798,0.82835511420583,38319.0
weighted avg,0.825366685074167,0.8414593152871194,0.8316500952530076,38319.0
