mean_q,mean_r,mean_s,stdev_q,stdev_r,stdev_s,mean_qrs_interval,mean_rr_interval,mean_rq_amplitude,person
-0.5538660579866473,0.5342139223855462,0.05788390725826275,0.0,0.0,0.0,,1.0880799803721937,75.0,tr13-0547
-0.19466922462304245,0.2160513055033744,0.14433227266690016,0.3164262666702228,0.02330410684215256,0.05098880734798614,456.6666666666666,0.4107205301264169,62.5,tr13-0547
-0.12495615298171638,0.26224327784296303,0.1660854504483198,0.3748225968033142,0.009628390576710966,0.04789593399529705,487.5,0.3871994308246794,70.0,tr13-0547
-0.1508820226387441,0.2294765851084208,0.16644782459964505,0.3474690960250604,0.021718234233221275,0.03699117794983618,497.5,0.38035860774716496,61.66666666666666,tr13-0547
-0.14756076177050187,0.21024088309527708,0.16160686012431175,0.3082039206305001,0.03655205885927805,0.04064602295659686,515.0,0.357801644865779,61.66666666666666,tr13-0547
-0.2457933770035457,0.19786446377674927,0.1470735690417752,0.31173384589696784,0.0401622635195908,0.04573239327931649,483.33333333333337,0.44365784078029497,53.75,tr13-0547
-0.2357493500580435,0.1961691750793602,0.14225648086489104,0.32671720843429863,0.0404432761550025,0.04500705483347736,490.0,0.4319185251374037,55.0,tr13-0547
-0.23754127121137586,0.1871766324103206,0.14256815114917198,0.3042878302028296,0.045326509376488654,0.04944350833118606,495.0,0.4247179036216964,53.75,tr13-0547
-0.342006321611688,0.17367723243050212,0.1251398029042464,0.2887990907104079,0.042500254248856575,0.04545476142354443,557.5,0.51568355404219,48.33333333333334,tr13-0547
0.06392133872550887,0.23481269262450044,0.19058773368834592,0.013522879578464722,0.0007011764719222491,0.0014859292635884258,1105.0,0.17089135389899154,75.0,tr13-0547
-0.1212101909799803,0.21947801324700925,0.1591678472939675,0.3075202240722593,0.029551417071133426,0.03961121233566058,542.5,0.3406882042269895,70.0,tr13-0547
-0.2424621901995385,0.2383607750260273,0.14706326769557268,0.3562202054169107,0.007938260351639605,0.04239847807142538,481.6666666666666,0.4808229652255659,65.0,tr13-0547
-0.2711317364966822,0.20049704996384715,0.15405599591060173,0.3174009102814291,0.03205411676902819,0.03910070608147562,481.6666666666666,0.4716287864605294,55.0,tr13-0547
-0.1504906105739475,0.2202712768362836,0.16755019470927954,0.2757588098555661,0.03215293503034439,0.04351178862969489,522.5,0.3707618874102312,70.0,tr13-0547
-0.27589058692937696,0.2198436303277477,0.15010632680412778,0.3263964109080005,0.022891388860305475,0.04977322624031946,470.0,0.4957342172571247,60.0,tr13-0547
-0.2739040919363349,0.22071894894260136,0.1387356764578045,0.33945256992702283,0.03572402197152992,0.033002805883342236,461.6666666666666,0.4946230408789362,61.25,tr13-0547
-0.4890247778453314,0.653073553227205,0.07119471376447191,0.0,0.0,0.0,,1.1420983310725363,75.0,tr13-0547
-0.2477814544649605,0.19133437337099696,0.13428671247171434,0.33752444860622965,0.03559240234246152,0.05092423995710605,568.3333333333334,0.4391158278359575,61.25,tr13-0547
-0.13283808406320632,0.2411773661496931,0.17298144842470956,0.3489263917283905,0.031911125771126835,0.04304614402386109,530.0,0.3740154502128994,68.33333333333333,tr13-0547
-0.2591792609972348,0.19694587473572545,0.15007539218964885,0.3136211022927797,0.04145216812136003,0.04849516355537825,561.6666666666666,0.4561251357329602,55.0,tr13-0547
0.09711621180545184,0.2346776641504243,0.1848719411149904,0.011899455872846292,0.0008874348786129943,0.0052736378399911715,1065.0,0.1375614523449724,75.0,tr13-0547
-0.13830375189523,0.2082966060095692,0.15666542869633765,0.2992366433532381,0.03917560989486063,0.04341658156714392,540.0,0.3466003579047992,61.66666666666666,tr13-0547
-0.26259784114293744,0.20760004956027867,0.15550681277416895,0.3223392041163708,0.03311939152097302,0.042165062020588825,486.6666666666666,0.4701978907032161,65.0,tr13-0547
-0.2621308595106338,0.2557634996109722,0.1470678830764099,0.3629126131114908,0.008323243085321078,0.04608234508451204,483.33333333333337,0.5178943591216061,66.25,tr13-0547
-0.41480915231748056,0.21281811670846773,0.15089168299502115,0.3220789106057366,0.026774317608120927,0.034505421530602425,540.0,0.6276272690259482,55.0,tr13-0547
-0.3598557386588221,0.17891908904741424,0.132252063663535,0.30648674846738616,0.03882677526695346,0.038889556345528715,542.5,0.5387748277062364,46.66666666666666,tr13-0547
-1.0890438419837127,1.3914875121788015,1.0960592131876394,0.0,0.0,0.0,,2.4805313541625145,75.0,tr13-0547
-0.16550152287664818,0.19538729644289088,0.15627929376090452,0.3023492364064165,0.0309184813986314,0.04041411493474618,545.0,0.3608888193195392,68.33333333333333,tr13-0547
-0.16360010106020173,0.4377144258007524,0.22784593068037645,0.023967112727852468,0.0214053002330501,0.014681285135256256,200.0,0.6013145268609541,75.0,tr13-0547
-0.2444072515369441,0.20246818767497704,0.14708935327646233,0.33890977092434793,0.04132279535737577,0.04205000476305523,551.6666666666666,0.4468754392119211,55.0,tr13-0547
-0.25603926664141136,0.2003721457997905,0.14795802691910834,0.3555311413210843,0.03612224523936155,0.03319476507147297,485.0,0.4564114124412018,55.0,tr13-0547
-0.13156662535655592,0.1987074751257536,0.1550066213713587,0.3128473406052911,0.03836198145820373,0.041718650358166826,525.0,0.3302741004823095,61.66666666666666,tr13-0547
-0.4890247778453314,0.653073553227205,0.07119471376447191,0.0,0.0,0.0,,1.1420983310725363,75.0,tr13-0547
-0.1250890132800058,0.208928668409716,0.1577754612989273,0.3055203296664338,0.0391108608276117,0.041683229619718536,545.0,0.33401768168972185,61.66666666666666,tr13-0547
-0.1357864900237432,0.22891766596426266,0.16468187136010198,0.3260140723901706,0.04474837353083218,0.06582610271210318,517.5,0.3647041559880058,70.0,tr13-0547
-0.2729220303304274,0.23634709521921576,0.15474574533627228,0.3379808974731513,0.019073276564318918,0.045062379885436085,486.6666666666666,0.5092691255496432,66.25,tr13-0547
-0.12817082790390852,0.20518521169640416,0.1550325320629321,0.30809300203416506,0.041620596993800885,0.04099307762668678,532.5,0.33335603960031274,61.66666666666666,tr13-0547
-0.2772805715793911,0.222565592435182,0.15105437996444246,0.3250780324104617,0.025488512772685958,0.050761569819399006,560.0,0.4998461640145731,60.0,tr13-0547
-0.2821782622804477,0.24559731478802135,0.15413721027898364,0.36223987243746375,0.016525114198018526,0.0445685801941773,483.33333333333337,0.5277755770684691,65.0,tr13-0547
-0.3886577025262349,0.257163705266151,0.1313672608169479,0.334022831045877,0.00919381297953222,0.042958179826200135,532.5,0.645821407792386,63.33333333333334,tr13-0547
-1.0890438419837127,1.3914875121788015,1.0960592131876394,0.0,0.0,0.0,,2.4805313541625145,75.0,tr13-0547
-0.3521388227737468,0.1817925231294192,0.13286192817059386,0.30333126529677723,0.039942928746641806,0.03893249298486536,545.0,0.533931345903166,55.0,tr13-0547
-0.21267578511353635,0.2081791062415796,0.14060975643892598,0.3416945530580867,0.030445582238086244,0.036336813364675515,705.0,0.4208548913551159,67.5,tr13-0547
-0.26418045715051186,0.21732871735373815,0.1496174130914843,0.35925017092244577,0.028221859375536743,0.043313377716237084,541.6666666666666,0.4815091745042501,55.0,tr13-0547
-0.3653349710540934,0.19798060044035412,0.13820896859975249,0.3103499292158883,0.03305132757004976,0.03425874517945104,542.5,0.5633155714944476,61.66666666666666,tr13-0547
-0.15910955125885853,0.20682296175900028,0.16192763529419554,0.2900492553368776,0.03478342367128959,0.0423159086918684,535.0,0.3659325130178589,61.66666666666666,tr13-0547
-0.2291031349313432,0.19054225327837715,0.13849215355142258,0.3305736392435749,0.017081485098411578,0.02339881131706137,390.0,0.4196453882097203,55.0,tr13-0547
-0.15074746753688265,0.2098911220631925,0.16359092249810556,0.2957992935359987,0.0367212899107494,0.0433256615199416,717.5,0.3606385896000752,61.66666666666666,tr13-0547
-0.1571823178186357,0.4426276046753839,0.23053044886027274,0.0002534398703437105,0.0001943498872408086,0.0002883594108522203,200.0,0.5998099224940197,75.0,tr13-0547
-0.2529052835418004,0.18237618853254814,0.1427946704400649,0.3024558607497811,0.03499758786204965,0.042077080611467664,488.33333333333337,0.4352814720743486,70.0,tr13-0547
-1.0890438419837127,1.3914875121788015,1.0960592131876394,0.0,0.0,0.0,,2.4805313541625145,75.0,tr13-0547
-0.23859416256114646,0.1923957983893066,0.14502830158710933,0.32828307152988,0.03497489107525417,0.040050404965873414,480.0,0.43098996095045305,55.0,tr13-0547
-0.281744446854068,0.2225043081927098,0.16171119970996478,0.36182836540675983,0.028620184816726988,0.035272565998070764,590.0,0.5042487550467779,60.0,tr13-0547
-0.22191561071947996,0.16807375785465026,0.1321007156460746,0.29320095481777697,0.024730893053130226,0.029759915168528432,375.0,0.3899893685741302,75.0,tr13-0547
-0.3623458197818761,0.2198009792644129,0.13416052273180715,0.3003052388144485,0.02976343924854273,0.04393841301204717,540.0,0.5821467990462889,63.33333333333334,tr13-0547
-0.1649467780436372,0.4367654110868045,0.2275595576395832,0.02754077791847984,0.02463610320392987,0.016941276709726796,200.0,0.6017121891304417,75.0,tr13-0547
-0.2487350484949484,0.2231867916389516,0.14776783276172747,0.3627789123239154,0.04164999729489943,0.05741870018464342,480.0,0.4719218401338999,66.25,tr13-0547
-0.2398536661419011,0.2270736944035196,0.14774207606549314,0.3356343403983417,0.02868926442783166,0.04473604672275143,488.33333333333337,0.4669273605454206,66.25,tr13-0547
-0.2642082647145585,0.20169000106574095,0.1510657931796287,0.3481788817287122,0.03738955772936385,0.03707597066215981,593.3333333333334,0.4658982657802994,55.0,tr13-0547
-0.3453543224858676,0.16500833159923484,0.12280988372130162,0.2962860628893323,0.020652805872125226,0.027623796799150672,545.0,0.5103626540851024,68.33333333333333,tr13-0547
-0.13321545298790866,0.20848210535013564,0.1559189505800716,0.3289282086776216,0.03842746013651998,0.03486667007412148,535.0,0.3416975583380443,61.66666666666666,tr13-0547
-0.4890247778453314,0.653073553227205,0.07119471376447191,0.0,0.0,0.0,,1.1420983310725363,75.0,tr13-0547
-0.2700590936184293,0.24757849239232216,0.1506246772230532,0.3978730802938549,0.02385173435950752,0.04320786265328511,453.33333333333337,0.5176375860107515,66.25,tr13-0547
-0.2611830188868458,0.21841734860238246,0.15062249403195713,0.30625254069810903,0.0280297979476936,0.04774513549022039,563.3333333333334,0.4796003674892283,66.25,tr13-0547
-0.15575529444753744,0.4443719249222224,0.231604055629936,0.008761859597260249,0.009318620556178128,0.009239042507635195,200.0,0.6001272193697598,75.0,tr13-0547
-0.12177324078211925,0.19811786296658307,0.13161269855756152,0.3096643876812357,0.017586864788081184,0.021439606247769864,817.5,0.3198911037487023,56.66666666666666,tr13-0547
-0.2375020717989751,0.18857369096281404,0.14150409282875426,0.3054784348834493,0.045137320656350254,0.04895806311094667,501.6666666666666,0.42607576276178905,55.0,tr13-0547
-0.23867090870720134,0.19357016063924565,0.14251837605097006,0.3383901361901568,0.04212600805428628,0.038085295123882736,591.6666666666666,0.4322410693464471,53.75,tr13-0547
-0.2681289044515159,0.20766654806866874,0.15200115398899733,0.33243390892184765,0.036472108248303714,0.04624849451538235,471.6666666666666,0.4757954525201846,55.0,tr13-0547
-0.2798859689511952,0.2189944313850358,0.15649809054958466,0.36388722802787454,0.02553602654070071,0.03142074956548652,488.33333333333337,0.4988804003362309,60.0,tr13-0547
-0.2595947588041456,0.22009429559637805,0.15247344674672725,0.3079210571126317,0.029181086279031005,0.04939914068103783,465.0,0.4796890544005237,66.25,tr13-0547
-0.2636529545206393,0.2491596326568329,0.1538746931215279,0.403830896016101,0.024146940652863453,0.04655988781604607,525.0,0.5128125871774722,66.25,tr13-0547
-0.24455039718137686,0.19280623608351785,0.14181755403253235,0.3178395435556527,0.043253912994242194,0.045553570796684636,486.6666666666666,0.43735663326489466,55.0,tr13-0547
-0.15788412753568384,0.21542308079475986,0.16901197733433004,0.3188412289655076,0.024475374695784792,0.02732442624315116,535.0,0.3733072083304437,61.66666666666666,tr13-0547
0.07592134021417084,0.23454169699623595,0.1898673703379216,0.011982640520613916,0.003183889314816904,0.002595671342212974,1105.0,0.1586203567820651,75.0,tr13-0547
-0.2690822987472229,0.2182032917516397,0.15363573019488425,0.3366599126842231,0.02173641400435133,0.035626607057338514,485.0,0.4872855904988626,60.0,tr13-0547
-0.26436548575573404,0.1997955031951976,0.1518643781702284,0.31883513947170816,0.03860414764110082,0.04674326742265333,466.6666666666666,0.4641609889509317,55.0,tr13-0547
-0.14521136298949305,0.21074103000152367,0.16017128869735556,0.29963491594514924,0.03739780255249325,0.045784105075304976,542.5,0.3559523929910167,61.66666666666666,tr13-0547
-0.2519302846944553,0.23927629455821606,0.14855058749106725,0.3473968053316915,0.008101080366471001,0.043965718090230387,586.6666666666666,0.4912065792526714,65.0,tr13-0547
-0.3896425821083945,0.2477920823120489,0.13898059460378065,0.3588351247676484,0.01856981011584757,0.041588289126425766,537.5,0.6374346644204434,61.66666666666666,tr13-0547
-0.1558874595969171,0.44417091531333697,0.2315072969643271,0.008321680952925693,0.008860962923339741,0.008769730666698656,200.0,0.6000583749102539,75.0,tr13-0547
-0.180775754910862,0.4265521751941583,0.22661165944095726,0.041338209924527095,0.039149357917482315,0.027763722806203303,200.0,0.6073279301050203,75.0,tr13-0547
-0.1403033234972818,0.20395229046051108,0.15743841120080307,0.28902826419127536,0.04364695417868433,0.046895918300890765,742.5,0.3442556139577929,61.66666666666666,tr13-0547
-0.25165901110863964,0.1978411417351712,0.1463189789922852,0.32210491934275703,0.038253111148397564,0.04404806823416975,571.6666666666666,0.4495001528438109,55.0,tr13-0547
0.05039845914704413,0.2355138690964227,0.19207366295193434,0.0,0.0,0.0,,0.18511540994937856,75.0,tr13-0547
-0.16296499452165136,0.4382292821425062,0.2280729923519067,0.022667700669501297,0.02023358202023584,0.013856539450840906,200.0,0.6011942766641576,75.0,tr13-0547
-0.13496722990140145,0.203367595905822,0.15654252258503928,0.2926251705054307,0.0432299962779216,0.046246878063406965,557.5,0.3383348258072233,61.66666666666666,tr13-0547
-0.2463670362187051,0.1967750001880296,0.14575430944394938,0.3131025755554525,0.04042396186756897,0.046858148496706095,486.6666666666666,0.44314203640673466,53.75,tr13-0547
-0.3700939097750648,0.21549232944326024,0.14276093878614646,0.33212419388180386,0.024506427561116772,0.034918416647328636,540.0,0.585586239218325,55.0,tr13-0547
-0.16523759505826596,0.43700563464227227,0.2293627120622023,0.03372325974331347,0.03015804063167689,0.020486676278441224,200.0,0.6022432297005381,75.0,tr13-0547
-0.05808973912578546,0.20912260845121056,0.1460716553163444,0.2780743998005304,0.013910566881627964,0.031962705004828014,730.0,0.267212347576996,65.0,tr13-0547
-0.2468510704091875,0.20408121899858928,0.14507489906031432,0.3461897122156283,0.03525265042984454,0.04336885217155767,555.0,0.4509322894077768,55.0,tr13-0547
-0.2743937582717202,0.22226454655084496,0.15850373424689254,0.33900469113771026,0.03633566873764039,0.04000587257179868,556.6666666666666,0.4966583048225651,61.25,tr13-0547
-0.4890247778453314,0.653073553227205,0.07119471376447191,0.0,0.0,0.0,,1.1420983310725363,75.0,tr13-0547
-0.23714368663277255,0.18878580336102116,0.14113030328437415,0.3090990176958389,0.04516093948425632,0.04813200400226556,498.33333333333337,0.4259294899937937,55.0,tr13-0547
-0.2619654997696597,0.21427338763514106,0.14744657037453013,0.3614668192174495,0.025034866346443703,0.0413036414168734,463.33333333333337,0.4762388874048007,55.0,tr13-0547
-0.3679236203498714,0.21270957827339165,0.13708000336500026,0.28192185839810663,0.0302860506196721,0.048019451650147815,510.0,0.5806331986232629,63.33333333333334,tr13-0547
-0.25584509219248536,0.19533986420431976,0.1490397525396142,0.3171737084114952,0.039837683793249916,0.047575430554460826,473.33333333333337,0.4511849563968052,55.0,tr13-0547
-0.2382377276687175,0.2330278020518928,0.13743495897892685,0.35309953094337143,0.029152435393301483,0.06277221781731232,450.0,0.4712655297206103,66.25,tr13-0547
-0.26700806245616715,0.2284530218332153,0.15450440252195402,0.3949495757904729,0.024188295084368747,0.03883998684959173,530.0,0.4954610842893825,60.0,tr13-0547
-0.12515354744567245,0.2379498378574109,0.16210949155505675,0.33785377853543586,0.009129393506015744,0.038617170369047285,530.0,0.36310338530308334,68.33333333333333,tr13-0547
0.08970861354579727,0.23706927878804426,0.18451011637776796,0.039310154398753135,0.0015554096916215732,0.007563546574166412,1115.0,0.14736066524224697,75.0,tr13-0547
-0.4890247778453314,0.653073553227205,0.07119471376447191,0.0,0.0,0.0,,1.1420983310725363,75.0,tr13-0547
-1.0890438419837127,1.3914875121788015,1.0960592131876394,0.0,0.0,0.0,,2.4805313541625145,75.0,tr13-0547
-0.2364953182746564,0.1921284579329346,0.1400927022274256,0.32618025548623386,0.04255163953492181,0.04393085312764082,588.3333333333334,0.4286237762075911,55.0,tr13-0547
-0.3439971379651215,0.17632969366529194,0.12593436218022738,0.31504584508937616,0.024464500613933883,0.026084462085295582,530.0,0.5203268316304135,48.33333333333334,tr13-0547
-0.2477314387464853,0.2583954431619141,0.1434401130313807,0.388059656096388,0.010674592452235369,0.057087207762706815,451.6666666666666,0.5061268819083995,67.5,tr13-0547
-0.3807719919292614,0.18860538284529266,0.13970461704003415,0.2936673424438296,0.02836032818961405,0.03485166642807243,532.5,0.5693773747745542,48.33333333333334,tr13-0547
-0.4890247778453314,0.653073553227205,0.07119471376447191,0.0,0.0,0.0,,1.1420983310725363,75.0,tr13-0547
-0.14920650837446126,0.20763110212100067,0.16452296226331953,0.2977332108479198,0.038881314474309335,0.04537594432292067,522.5,0.3568376104954619,61.66666666666666,tr13-0547
-0.5538660579866473,0.5342139223855462,0.05788390725826275,0.0,0.0,0.0,,1.0880799803721937,75.0,tr13-0547
-0.25480239027771595,0.20805450323810812,0.15028115407367093,0.3299850953641534,0.033522279805270366,0.03629682082914402,598.3333333333334,0.462856893515824,65.0,tr13-0547
-0.4890247778453314,0.653073553227205,0.07119471376447191,0.0,0.0,0.0,,1.1420983310725363,75.0,tr13-0547
-0.14477260012602086,0.21078614485856606,0.16167156989818596,0.2972659068384233,0.035470306782248294,0.04344416770199786,532.5,0.3555587449845868,61.66666666666666,tr13-0547
-1.0890438419837127,1.3914875121788015,1.0960592131876394,0.0,0.0,0.0,,2.4805313541625145,75.0,tr13-0547
-0.13510103673283125,0.20757229210062295,0.1595204062236906,0.29859104071280523,0.038228990329674695,0.042969386021275265,742.5,0.34267332883345425,61.66666666666666,tr13-0547
-0.4890247778453314,0.653073553227205,0.07119471376447191,0.0,0.0,0.0,,1.1420983310725363,75.0,tr13-0547
-0.24205357038724434,0.1932280451988603,0.145452766989164,0.3272703263198499,0.04056218407295098,0.044692811965817536,380.0,0.4352816155861047,55.0,tr13-0547
-0.2457759547141976,0.1948307619766498,0.1462844193016172,0.3208528813731726,0.04131059409348625,0.04095478069773592,490.0,0.4406067166908474,60.0,tr13-0547
-0.098836065772494,0.3109412883045821,0.2007984836155544,0.1232778990628951,0.07646152897209396,0.0019505469808004247,955.0,0.4097773540770761,75.0,tr13-0547
,,,,,,,,,tr13-0544
-0.08092464421240568,0.16352442777008255,-0.07606539738649201,0.00987137469992644,0.022403357764987426,0.005467176656027199,421.25,0.24444907198248825,58.0,tr13-0544
-0.08560966449525068,0.13940807583433662,-0.08252551031147519,0.01289368489302153,0.011150210441857092,0.012857543169566998,203.88888888888889,0.2250177403295873,49.5,tr13-0544
-0.087740059616116,0.14224542906001528,-0.0897546480995896,0.0172071458385424,0.015464540780324582,0.01452326819111694,222.5,0.2299854886761313,52.77777777777778,tr13-0544
-0.0957620216769804,0.1339075808869807,-0.09269174226374137,0.010505270322425328,0.014767755587449416,0.015976230572869125,240.7142857142857,0.2296696025639611,49.375,tr13-0544
-0.08068061343199767,0.14381439736572887,-0.07828619465786797,0.006064347802327593,0.022985728144849053,0.007049697795173634,247.85714285714283,0.22449501079772655,52.5,tr13-0544
-0.09431626868807673,0.1335629378674324,-0.08846114351431117,0.010572925950321966,0.011812570284896644,0.011505747857669526,204.375,0.2278792065555091,42.77777777777778,tr13-0544
-0.08950357764322404,0.17622107904720705,-0.09506154057179206,0.01828904558566286,0.028947930025331,0.024629132839668832,259.0,0.26572465669043105,49.16666666666666,tr13-0544
-0.09208285471358883,0.1426480657588299,-0.08799505955352199,0.01299727807748314,0.02164228658109037,0.010407383840030008,216.875,0.23473092047241875,48.88888888888889,tr13-0544
-0.08384720714022745,0.14176879321958616,-0.08932450430855964,0.00955642764074401,0.014413032732214144,0.014700591479769919,239.16666666666669,0.2256160003598136,45.714285714285715,tr13-0544
-0.09649705902220694,0.14199217538023656,-0.09396924804114032,0.014779089438654875,0.01703666656271211,0.014249722653159526,216.875,0.2384892344024435,48.88888888888889,tr13-0544
-0.09124259759268567,0.1519348534852864,-0.09213741903898877,0.010104959064888144,0.01774065038402461,0.013581441171868594,230.8333333333333,0.2431774510779721,53.57142857142857,tr13-0544
-0.09778808396021683,0.14655169766376766,-0.09530618740751698,0.01593446209652779,0.02445575484768821,0.016763280475833947,223.57142857142856,0.2443397816239845,50.0,tr13-0544
-0.08520342609956964,0.14815038629570587,-0.0840247478448024,0.00984715039209986,0.01877688162955514,0.008205175923421956,285.8333333333333,0.23335381239527545,45.714285714285715,tr13-0544
-0.09362638497323288,0.14059029223776506,-0.08945273455249213,0.017894426789503943,0.017492893100992373,0.018533427281363337,226.875,0.2342166772109979,48.33333333333334,tr13-0544
-0.09346137387657732,0.1528843668856492,-0.08340101911400549,0.01424725513065384,0.020859969168567145,0.007748306156634602,267.14285714285717,0.2463457407622265,48.125,tr13-0544
-0.08225519092810275,0.16380630144828512,-0.0829282460213727,0.013051000845647916,0.02138173611641814,0.023265748520426826,266.0,0.24606149237638786,46.66666666666666,tr13-0544
-0.08665813620028953,0.1584911322537299,-0.08060650570006044,0.010010623610311615,0.023153397297301887,0.01094178811755265,289.1666666666667,0.24514926845401944,54.28571428571429,tr13-0544
-0.10324647101324542,0.14451644912084527,-0.08839182500913502,0.034005078076079415,0.01662471214688306,0.018943656900888558,216.875,0.24776292013409065,50.555555555555564,tr13-0544
-0.10115561024925343,0.16401677130804626,-0.08576195784718063,0.030005436892046086,0.02627079988677805,0.012301445112134905,353.0,0.2651723815572997,48.33333333333334,tr13-0544
-0.08543104736925752,0.1443752324368013,-0.08899819072896502,0.014219891079168254,0.0164683416295546,0.0152384791442717,294.1666666666667,0.2298062798060589,47.85714285714285,tr13-0544
-0.09432243079177087,0.1427074706739399,-0.09124141402072122,0.012838703170191212,0.020047046545701337,0.0152318422496109,223.125,0.2370299014657108,44.444444444444436,tr13-0544
-0.08073737748677554,0.14823758865156278,-0.07821489692954606,0.005686956594295898,0.02006957543320453,0.008264649402493426,255.0,0.2289749661383383,50.625,tr13-0544
-0.09652263525157352,0.14426988618371442,-0.09473637432899762,0.01870975280289684,0.015618000079245103,0.0113237796381068,233.57142857142856,0.24079252143528795,48.125,tr13-0544
-0.08844420253032864,0.15162295080826388,-0.09147542352740108,0.015402994342784271,0.018532265912662618,0.015611211457103712,223.125,0.2400671533385925,47.77777777777778,tr13-0544
-0.07928579435734917,0.1435805563197764,-0.07567360114775555,0.003526431483793436,0.02262086230464528,0.008835118736594474,247.85714285714283,0.2228663506771256,43.75,tr13-0544
-0.08607755372539372,0.13763024598891038,-0.08410209020976303,0.010580871458689136,0.016084569237560537,0.010694338260007815,247.85714285714283,0.2237077997143041,46.875,tr13-0544
-0.0970389103528365,0.13969949785405542,-0.09757586879805613,0.01918026104028131,0.0181062391325856,0.018028332988396286,280.0,0.23673840820689196,45.714285714285715,tr13-0544
-0.0957958962826321,0.1322699588287043,-0.0953003305997516,0.01126503414513167,0.012109073812257865,0.009354435762971713,226.42857142857144,0.2280658551113364,50.0,tr13-0544
-0.0954328214275715,0.13219595945103152,-0.08953544058005608,0.010613954938714592,0.015940728069633103,0.017394900725234353,225.7142857142857,0.22762878087860305,49.375,tr13-0544
-0.09017250874387278,0.1294441624434882,-0.08725339019861646,0.013588759796062574,0.0181920122239136,0.015895425734273404,235.625,0.21961667118736092,49.444444444444436,tr13-0544
-0.08911051104464318,0.1425155979055078,-0.08783033423675672,0.014823790233714091,0.016678847450887345,0.01634945536411618,228.75,0.23162610895015096,46.66666666666666,tr13-0544
-0.09048723930715344,0.1413602728905478,-0.0926134231568836,0.01628415288259841,0.016186244507003327,0.012796000561352782,225.7142857142857,0.2318475121977012,53.125,tr13-0544
-0.09405659587136643,0.1323347399385908,-0.09436708488949183,0.015132749102227491,0.015527210785376182,0.014987649520222296,203.88888888888889,0.22639133580995724,47.5,tr13-0544
-0.09822026406203316,0.13630924810429246,-0.09122253736681367,0.00976138456275887,0.01539897589688391,0.010987101407466357,245.7142857142857,0.2345295121663256,51.875,tr13-0544
-0.08942836147487923,0.14036566012628646,-0.08820217631321531,0.013136747648020159,0.0206297726449885,0.016352780500183104,205.0,0.2297940216011657,47.5,tr13-0544
-0.0911135384202484,0.15320775927932362,-0.08702585261862618,0.01902343428291619,0.019059842419927853,0.016357065395418827,226.42857142857144,0.244321297699572,51.25,tr13-0544
-0.0923846702500106,0.12942380522706984,-0.09270314524222298,0.01373172755621082,0.014298919633323382,0.014105011767944504,209.44444444444443,0.22180847547708046,47.5,tr13-0544
-0.08010298708453865,0.14243899988121478,-0.07791487078100147,0.0032516396184016022,0.021542223841450152,0.010442040309250493,247.85714285714283,0.22254198696575345,47.5,tr13-0544
-0.09054051458914596,0.1648117253209554,-0.0859115881563316,0.011977587499698045,0.023205699523527832,0.01857118869039886,245.0,0.25535223991010136,46.875,tr13-0544
-0.0810295827419354,0.1617246338303643,-0.07632904565554431,0.007464535270453506,0.01886657370829,0.005931035309527921,216.66666666666669,0.2427542165722997,53.57142857142857,tr13-0544
-0.0829795246970097,0.1514596723181066,-0.07989857443653997,0.01172472498845442,0.024935429408859552,0.013698366050398692,219.28571428571428,0.23443919701511634,53.125,tr13-0544
-0.09983408328728567,0.13709643765620472,-0.09323320806718614,0.010314631475027642,0.012536600622567751,0.011392225416067216,219.28571428571428,0.2369305209434904,58.75,tr13-0544
-0.07938156791709315,0.16559305471127395,-0.07625503095599821,0.006781899775445367,0.017621561885629182,0.006403256665148536,220.0,0.2449746226283671,54.16666666666666,tr13-0544
-0.08561945200563083,0.15150603876299726,-0.08102031491321902,0.009206556908524557,0.023932272611942345,0.010892452159255118,216.25,0.2371254907686281,53.33333333333334,tr13-0544
-0.09414900126664656,0.15521510836153854,-0.08282179194651748,0.014801435867103606,0.01888731669793336,0.007005219156505728,240.7142857142857,0.2493641096281851,46.875,tr13-0544
-0.09069673568310962,0.14228891527873233,-0.09195654688545338,0.014708811469509591,0.01255347457696632,0.015119602454960681,266.42857142857144,0.232985650961842,50.0,tr13-0544
-0.09837527749546686,0.1249484134502947,-0.09417385039612446,0.008831563789527595,0.01737988879383434,0.010950791493156736,210.0,0.22332369094576154,55.0,tr13-0544
-0.08937625903335494,0.14427166218121906,-0.09014588551739801,0.014856881229027475,0.021419665870454387,0.014935148284196944,259.2857142857143,0.23364792121457398,46.25,tr13-0544
-0.08612642701128792,0.14877303867933855,-0.09021877455538027,0.015046747109443703,0.016376046895451225,0.015595688082387338,223.125,0.2348994656906265,47.77777777777778,tr13-0544
-0.09315770660290264,0.15570576315930448,-0.08732861207830307,0.019497712305472432,0.019111624865710355,0.0174654580019957,230.8333333333333,0.2488634697622072,51.42857142857143,tr13-0544
-0.094682235762879,0.1678488329033962,-0.09587006788011808,0.014806923306112428,0.0352032561122863,0.021356918959362037,420.0,0.26253106866627524,43.0,tr13-0544
-0.09014496516593108,0.14569100577664595,-0.09096069347847233,0.016760765587335767,0.01309153411472823,0.01673750145962461,240.7142857142857,0.2358359709425771,48.75,tr13-0544
-0.09156513144302876,0.14720968323075506,-0.09291117762721827,0.009430359249705023,0.01832157666467356,0.012135149193349556,223.125,0.2387748146737838,51.66666666666666,tr13-0544
-0.09755456751512144,0.15151313737000674,-0.08313448882943633,0.011659948289636436,0.022884777044165684,0.0069178053863144144,266.42857142857144,0.2490677048851281,48.75,tr13-0544
-0.08685835298584679,0.13609299845812015,-0.08901248505640487,0.016993770763282002,0.010033746423058062,0.015355213337438878,216.25,0.22295135144396697,48.88888888888889,tr13-0544
-0.0954930393212642,0.16478752649639858,-0.08387781333553612,0.029266232954077494,0.027288438877818563,0.010504455415731969,256.0,0.2602805658176628,45.0,tr13-0544
-0.08453737491358877,0.14228803333397694,-0.08257836669901576,0.011128669839471738,0.018720944365188185,0.01104556870540886,247.85714285714283,0.2268254082475657,43.125,tr13-0544
-0.09152533278709067,0.137437407278609,-0.092414507968754,0.018451736368662274,0.020138669681232485,0.01660238389611485,235.625,0.2289627400656997,52.77777777777778,tr13-0544
-0.0823075425355772,0.15413523870076906,-0.07860865844726167,0.011358026803387957,0.02357263778563691,0.012135057076449877,219.28571428571428,0.2364427812363463,54.375,tr13-0544
-0.0922299627989556,0.13879466527143644,-0.09267693001207586,0.020135450677780102,0.017269999171823796,0.018542132852982816,238.125,0.231024628070392,46.66666666666666,tr13-0544
-0.08650567848779511,0.13688955494292165,-0.0808134508922016,0.008295090639924717,0.019140039236390387,0.01081089835629716,262.14285714285717,0.22339523343071674,49.375,tr13-0544
-0.09744274057377528,0.14594170139897306,-0.09247338349459454,0.018799908484686968,0.023331407089777316,0.016438102794377508,206.875,0.2433844419727483,50.0,tr13-0544
-0.08069995116625961,0.1507179237487366,-0.07440238813891886,0.004673266112190177,0.015801587124829618,0.007869868498763824,221.42857142857144,0.2314178749149962,44.375,tr13-0544
-0.0906227800175338,0.13961645564011668,-0.09129640262345157,0.019382814124358404,0.020335375647868262,0.017287064783949733,219.28571428571428,0.2302392356576505,53.125,tr13-0544
-0.08186837653572304,0.1503928323157186,-0.07876611370087165,0.0072797678153155125,0.018271603106847317,0.006477025216301282,206.25,0.23226120885144164,52.77777777777778,tr13-0544
-0.09667940009425313,0.15265061615192346,-0.08454437495862659,0.016065206502077854,0.02161695630261781,0.008999262343390409,245.0,0.24933001624617654,46.875,tr13-0544
-0.08413712905037839,0.13737681245035588,-0.08721326594383723,0.015222877856342888,0.02181780509151843,0.015112532289643934,255.8333333333333,0.22151394150073428,53.57142857142857,tr13-0544
-0.08808410072718087,0.14341916424495388,-0.08372953459882816,0.017107091703388404,0.016595669896150897,0.011113610019830836,222.5,0.23150326497213475,50.0,tr13-0544
-0.0962432931301886,0.14310964033109425,-0.09195004149499968,0.012338108743662831,0.021228846429045187,0.016015329204575844,226.42857142857144,0.23935293346128286,43.75,tr13-0544
-0.09550511614803056,0.1672192021670722,-0.08310663193997753,0.02926526467926615,0.025106882476875942,0.010249411483119213,347.0,0.2627243183151028,45.83333333333334,tr13-0544
-0.08944529152960617,0.13771300057275582,-0.08946991799872092,0.011448572997995588,0.021322995963754445,0.011745774614518057,247.85714285714283,0.227158292102362,47.5,tr13-0544
-0.0946614410777756,0.1396865562944089,-0.0931376552624186,0.014162217460979181,0.018162074454196687,0.0177877027471051,260.8333333333333,0.2343479973721845,50.0,tr13-0544
-0.09952278908045613,0.13293867189426467,-0.09059286242556247,0.013995046511476645,0.011463312119556288,0.010104192134939408,245.0,0.2324614609747208,41.25,tr13-0544
-0.09790428963239198,0.1654456103036606,-0.08628320705312678,0.02987144589984443,0.02478140607137704,0.014541868763868138,297.5,0.26334989993605257,46.42857142857143,tr13-0544
-0.09366637446905918,0.14228532941296448,-0.08585895692731232,0.019517930484210945,0.015344021249601813,0.009556728977616741,260.0,0.23595170388202366,51.25,tr13-0544
-0.09023799282897414,0.1423891046168843,-0.09062006481551813,0.020503766032005155,0.014807245944003603,0.01867379921570805,243.57142857142856,0.2326270974458585,46.25,tr13-0544
-0.08618293147150886,0.1413698041208255,-0.08825259834963495,0.01306447892712836,0.02137706714036493,0.015041538681688404,239.16666666666669,0.2275527355923344,45.714285714285715,tr13-0544
-0.07836965169586721,0.16809362074336626,-0.07459557457682073,0.007003509894641543,0.01830591022215908,0.0057165778449493575,225.0,0.24646327243923344,55.0,tr13-0544
-0.09174252877604036,0.13953954171516672,-0.08897190896206601,0.011585008015714698,0.020294354342295075,0.009150264371676443,222.5,0.2312820704912071,50.0,tr13-0544
-0.08645500146213751,0.15722738921830187,-0.08459700548011087,0.01381554164413707,0.025174658987261525,0.021940780026414176,269.1666666666667,0.24368239068043934,47.85714285714285,tr13-0544
-0.09319158487801536,0.12896666041832966,-0.09370168648429257,0.010742971732782072,0.018419393164231742,0.011289029226060452,260.8333333333333,0.22215824529634493,47.14285714285714,tr13-0544
-0.08585899821929903,0.13855196644548393,-0.08369817290299945,0.011294523338356377,0.01699634876276718,0.011375503831079688,239.16666666666669,0.22441096466478294,46.42857142857143,tr13-0544
-0.087764856394495,0.14120919038115634,-0.08934970838051147,0.017909115360558732,0.017518462532460127,0.01536749711670904,233.57142857142856,0.22897404677565136,53.125,tr13-0544
-0.09122473599044448,0.14044858243338976,-0.0943071237861309,0.008788654949823425,0.016940032624520908,0.011319461906432451,247.85714285714283,0.23167331842383426,53.75,tr13-0544
-0.08959353650438594,0.1403568033945016,-0.09268256871216607,0.016979358117035,0.01619974224880684,0.01594409207753845,223.125,0.2299503398988875,48.88888888888889,tr13-0544
-0.09456752731980364,0.15115766153951427,-0.08909184491276292,0.01990147821162909,0.018524174333608517,0.016583112805821646,222.5,0.245725188859318,50.0,tr13-0544
-0.08587785780890235,0.14438077750104514,-0.08674796498095666,0.012247327178205923,0.02152483099719833,0.014622392115950763,233.57142857142856,0.2302586353099475,46.25,tr13-0544
-0.08794981300171173,0.13176086996690986,-0.08807531801931949,0.011401873121047802,0.01439423346884315,0.010650887627957418,215.0,0.2197106829686216,46.25,tr13-0544
-0.09342130643792336,0.14120353331926275,-0.09251212137049447,0.016686606548469214,0.01634968827110703,0.015822205604664547,237.85714285714283,0.2346248397571861,51.25,tr13-0544
-0.0897460569549797,0.1453052822806043,-0.09355943292297486,0.007427129064882078,0.02051120408225539,0.012590701688343156,245.7142857142857,0.235051339235584,51.875,tr13-0544
-0.0895243146272211,0.16279306843132174,-0.08822638345003538,0.015339536900268656,0.01480722501273894,0.01790070125135487,264.1666666666667,0.25231738305854284,49.28571428571429,tr13-0544
-0.08439626253103656,0.14779744517405893,-0.08250226350957747,0.012634923423215195,0.023564478212766197,0.011105566888047962,216.875,0.2321937077050955,48.88888888888889,tr13-0544
-0.10565519042565187,0.1455018370499157,-0.08844323515728543,0.03533654112899216,0.017383606684912713,0.020092190444197716,219.28571428571428,0.2511570274755676,50.625,tr13-0544
-0.09346073921846323,0.14075238191620396,-0.08964410051855078,0.01050459673534355,0.016892222737476818,0.011988148436660816,261.6666666666667,0.2342131211346672,50.0,tr13-0544
-0.08498540342598254,0.13798178343587764,-0.08365529138229275,0.013166220211390587,0.009317113088412557,0.01225151481580016,203.88888888888889,0.2229671868618602,49.5,tr13-0544
-0.09291075664429267,0.14039690353463471,-0.0925887780816186,0.01036689521086188,0.0194249809850701,0.010434179123266822,238.3333333333333,0.2333076601789274,50.0,tr13-0544
-0.09257575814629287,0.1563759359269722,-0.08097531613066901,0.014988496074092555,0.019614615694745624,0.01113809402922309,226.42857142857144,0.24895169407326506,48.125,tr13-0544
-0.09305329445343953,0.13734853261905078,-0.0934350204291668,0.02068285648754256,0.018630403738809826,0.01868675870460022,228.75,0.2304018270724903,46.66666666666666,tr13-0544
-0.08309644395975183,0.15564290442583578,-0.07918740020315107,0.011935455687848751,0.024836789776528808,0.01286923312660866,222.5,0.2387393483855876,55.0,tr13-0544
-0.09508183644531318,0.13468776826985795,-0.09212594922374054,0.010942442387140882,0.014898039280354134,0.016140152944875526,247.85714285714283,0.2297696047151712,49.375,tr13-0544
-0.08937601385809431,0.16392423013233867,-0.08010256681861146,0.029411829956188924,0.024719058139466118,0.010410264259249614,264.1666666666667,0.25330024399043305,46.42857142857143,tr13-0544
-0.1091520443941127,0.14312525477370336,-0.09138720912567136,0.032947852788951563,0.018198740684015783,0.01893786487304903,226.42857142857144,0.25227729916781605,50.0,tr13-0544
-0.08471152339839462,0.1459096847865072,-0.08158182128158475,0.010768218336570498,0.020346455974922347,0.010476700144535556,216.25,0.2306212081849018,51.111111111111114,tr13-0544
-0.09098298226786143,0.1403865247234196,-0.08957991252612074,0.01902753479918877,0.018712596231762548,0.019370341020344267,240.7142857142857,0.23136950699128098,50.625,tr13-0544
-0.09103079317637378,0.1476856288423678,-0.09223893680614202,0.009574194769055144,0.01883854619256092,0.011314390584772752,252.14285714285717,0.2387164220187416,51.875,tr13-0544
-0.10748386378934012,0.15994500037108042,-0.08927160890544983,0.028984663780926487,0.026994629107484458,0.01037712671751585,378.75,0.2674288641604205,48.0,tr13-0544
-0.09149920439372124,0.14513444727595404,-0.09211822955556742,0.009293642478988486,0.020647249394416364,0.011165556248009087,223.125,0.2366336516696753,52.77777777777778,tr13-0544
-0.0902582882860682,0.17538091870140565,-0.09167849873434923,0.01994917284487784,0.03164401944857526,0.025675731515918555,250.0,0.26563920698747384,50.0,tr13-0544
-0.0912619861847292,0.1327293395404066,-0.09341236979847874,0.01371270373034974,0.013255938424877328,0.0151643004272962,216.875,0.22399132572513575,47.22222222222222,tr13-0544
-0.09823160428853887,0.12723310007841065,-0.09483098400919576,0.00912464678795188,0.015788349605182772,0.011003133407980082,233.125,0.2254647043669495,53.33333333333334,tr13-0544
-0.09319943471648068,0.17386020629118365,-0.09327017194467044,0.015869035554766316,0.032691578534883935,0.024347758832446033,420.0,0.26705964100766433,45.0,tr13-0544
-0.10865423362751203,0.15241730949917326,-0.08832518329964062,0.0340655652509367,0.0144138152328453,0.01717511196503001,233.57142857142856,0.2610715431266853,50.0,tr13-0544
-0.0878928950597574,0.15755681218964845,-0.09141881754562016,0.01588795477944116,0.02615553509124396,0.02270316871909947,313.0,0.24544970724940585,46.66666666666666,tr13-0544
-0.08307818494384034,0.14422548019583342,-0.08195112600923499,0.013408556675523894,0.020361295491332625,0.014965576707359672,216.875,0.2273036651396737,45.555555555555564,tr13-0544
-0.0932457496015888,0.1351905558090131,-0.09073945253191998,0.011543550984692272,0.02219851267050932,0.00975350668795327,223.57142857142856,0.2284363054106019,50.0,tr13-0544
-0.0833433209746004,0.15142482012485892,-0.08099298993330567,0.011101964016002342,0.02350955497253707,0.013280727555932351,216.875,0.2347681410994593,53.88888888888889,tr13-0544
-0.09691516477635173,0.14782081705363534,-0.09495397370420768,0.017674628766704233,0.01782392691142799,0.010693887379047841,229.375,0.2447359818299871,48.33333333333334,tr13-0544
-0.08912714810502773,0.14059095592779292,-0.0882158296261205,0.012414711853831018,0.0194603721140054,0.015417597674338772,233.75,0.2297181040328207,47.77777777777778,tr13-0544
-0.08971770704355868,0.15003170529180335,-0.08740656023104433,0.017987441596250257,0.02244695766815856,0.016667775656526152,226.42857142857144,0.23974941233536204,51.25,tr13-0544
-1.49393331177259,0.695659378139563,0.21571829659746114,0.05285878124072152,0.009423698518060129,0.010600844392376824,930.0,2.1895926899121534,62.5,tr13-0448
-1.5488468604082468,0.7299043326634513,0.22910396566974944,0.014222423164421709,0.004305918573839621,0.0048928118447013145,895.0,2.2787511930716984,55.0,tr13-0448
-1.5482734345824416,0.7237416287810393,0.22419889407123333,0.015334690585795396,0.005868835071561551,0.007638034826294063,910.0,2.272015063363481,60.0,tr13-0448
-1.5363579222554935,0.7341715670766878,0.23764180477938,0.028097011451503676,0.002729032875538051,0.006166727999932717,920.0,2.2705294893321817,52.5,tr13-0448
-1.5233428253548644,0.720352811442436,0.223942102584504,0.021770359259220332,0.0019965954012533533,0.0032612380573437266,885.0,2.2436956367972996,60.0,tr13-0448
-1.5283410592406652,0.7215677310964077,0.23970290784084294,0.013980068263491184,0.004095535623483693,0.001010109734897735,980.0,2.2499087903370727,60.0,tr13-0448
-1.5457208955954806,0.7109131054263234,0.2238052990811339,0.0018693305008615766,0.0035067890497896825,0.015638732296455515,875.0,2.256634001021804,60.0,tr13-0448
-1.5489830295695302,0.7163877682234233,0.2411460118913316,0.0111055126804952,0.0008592207438871124,0.00394774145141545,840.0,2.2653707977929534,52.5,tr13-0448
-1.5255448723595326,0.7259931098546615,0.2394449898366683,0.03612544803637829,0.008870310921584246,0.01905581902829899,845.0,2.2515379822141943,57.5,tr13-0448
-1.5314679067164008,0.7042705051617003,0.20346272177494484,0.01777792795767906,0.02196039127954241,0.009242872343212593,830.0,2.2357384118781014,50.0,tr13-0448
-1.5172404668519477,0.6977745292565123,0.2200415159756781,0.00944002813464151,0.002195997993862775,0.0120094540938349,795.0,2.21501499610846,55.0,tr13-0448
-1.5148394024029168,0.7013595537422658,0.20892739892939427,0.028471060545344394,0.012226274120877742,0.01412676790266321,822.5,2.2161989561451825,56.66666666666666,tr13-0448
-1.4967222951302164,0.7137892919264992,0.2124124200923127,0.03342076085752743,0.007582283507400422,0.0037541051393347453,835.0,2.210511587056716,62.5,tr13-0448
-0.9162173735718456,0.7114096150570899,0.27821637031615115,0.7946247170236941,0.004831516161197903,0.08214578061498484,722.5,1.6276269886289354,60.0,tr13-0448
-1.3453183293140725,0.8133525774807264,0.2919998773524832,0.10628019727437203,0.10083498258962686,0.11011419048414273,835.0,2.158670906794799,60.0,tr13-0448
-1.5102173293389496,0.6785222994450963,0.2213134129118832,0.10410820818384092,0.07231292089930269,0.06421469971074087,830.0,2.1887396287840457,45.0,tr13-0448
-1.5560261148481465,0.6999550940129493,0.1900922425299184,0.010869817986996157,0.011005915037368807,0.017320189755667032,810.0,2.255981208861096,60.0,tr13-0448
-1.5022972820793357,0.7016648896299842,0.20154635949298955,0.009667010661927431,0.006984533184415276,0.010165181713966798,795.0,2.20396217170932,60.0,tr13-0448
-1.5387464524044865,0.7270816832468008,0.20511291179900026,0.014593975882761678,0.002878805740012147,0.0007765660057125617,810.0,2.2658281356512875,60.0,tr13-0448
-1.5068566179514613,0.7207756630218073,0.21976106888918528,0.009390869604508856,0.0006713702070805239,0.005901121634409839,870.0,2.2276322809732685,52.5,tr13-0448
-1.4922899875976048,0.7190087435448398,0.2189581658279859,0.012799366353096309,0.01124285492224947,0.0020268689728899225,970.0,2.211298731142445,52.5,tr13-0448
-1.4671510313735596,0.7172809081325457,0.21651690845246468,0.04197559651032157,0.003674373042172607,0.008592135194530462,980.0,2.1844319395061063,60.0,tr13-0448
-1.4923934155560368,0.6987538979400204,0.2193706219431161,0.007435062112646219,0.002433894063955222,0.003431867794098348,915.0,2.191147313496057,52.5,tr13-0448
-1.533419151693814,0.7136121368529165,0.2104837533749968,0.015105837842806613,0.006164743370320636,0.003309176355349441,835.0,2.2470312885467307,52.5,tr13-0448
-1.4690605306293767,0.7054568680706512,0.2301255240016282,0.01212170804045346,0.07741845242991395,0.014825962478772397,822.5,2.174517398700028,51.66666666666666,tr13-0448
-1.5101594258708169,0.654151941391236,0.14407192368336202,0.02443520974773694,0.02714968522866273,0.02320650217209396,795.0,2.1643113672620533,60.0,tr13-0448
-1.3890974841542068,0.6159760246517452,0.1568372144718666,0.04260386889471048,0.04524375490888998,0.03292893941321273,792.5,2.005073508805952,55.0,tr13-0448
-1.4032432043593008,0.6239416367308528,0.18291617953232406,0.02532892556060562,0.0058446096969965175,0.0021488438301357077,765.0,2.027184841090153,57.5,tr13-0448
-1.5189353893694002,0.6957032350106354,0.18795682499495095,0.0252824199012166,0.006367824723404858,0.006392242420925357,730.0,2.214638624380036,52.5,tr13-0448
-1.5507992891954356,0.73241930843573,0.227731799789936,0.017087423635372526,0.002972556600194409,0.00550099027596862,910.0,2.2832185976311656,60.0,tr13-0448
-1.5330136999013206,0.7248993751211663,0.22607797065330376,0.03144123380567665,0.0065431590799835395,0.005397106126143497,930.0,2.2579130750224867,60.0,tr13-0448
-1.5095823468934653,0.7110967560822604,0.20247635492642227,0.012978638941893016,0.014506642573316068,0.008403395892795647,800.0,2.2206791029757262,60.0,tr13-0448
-1.5390865854825564,0.6934280500427673,0.2085184569854795,0.01731904400586326,0.01925387438173598,0.007173887242790125,835.0,2.2325146355253245,52.5,tr13-0448
-1.5486599953641498,0.7325011644442627,0.2193958343794533,0.014948129804086885,0.002890700591661799,0.0028349751345140427,860.0,2.2811611598084127,60.0,tr13-0448
-1.4930082666828688,0.7055550303701985,0.2290837192096072,0.05193373615100027,0.019319350748695563,0.0027645782197692204,910.0,2.1985632970530675,55.0,tr13-0448
-1.5197543067623502,0.7089412223723603,0.19934122496746048,0.03381468731598558,0.007195663323737611,0.004864582549222729,820.0,2.2286955291347104,62.5,tr13-0448
-1.518749491726863,0.6899077447246853,0.2138092005646818,0.007997732987214215,0.011268874649512177,0.013184643941048782,800.0,2.208657236451548,51.66666666666666,tr13-0448
-1.5113395117529502,0.7073232020802996,0.2077969675213531,0.04200091653429794,0.016879675426488938,0.0019074897166402593,850.0,2.21866271383325,60.0,tr13-0448
-1.5063100572164767,0.7008580431494988,0.21326380624387534,0.020370437770112267,0.0008875158991237807,0.01878716382563761,835.0,2.207168100365976,55.0,tr13-0448
-1.518058384631494,0.7193049559006062,0.20802394350012204,0.0060940918902309136,0.010655533086206705,0.003687597706834314,805.0,2.2373633405321,60.0,tr13-0448
-1.5797409171919703,0.6585851937980558,0.1822555727433639,0.034584620330820104,0.052375815252262266,0.02515685954222155,835.0,2.2383261109900263,52.5,tr13-0448
-1.402415052193743,0.7623461744363914,0.2525060917289464,0.07209193622767109,0.0783495509782284,0.07998304515433617,837.5,2.164761226630134,55.0,tr13-0448
-1.4777662068662691,0.7145796758349822,0.2205193471198404,0.033636064491769264,0.002206233581758976,0.01162129304857938,875.0,2.1923458827012507,52.5,tr13-0448
-1.3919925538438584,0.5974754567203799,0.15816430794384714,0.03657957607604778,0.020621570313476282,0.02260302775834115,790.0,1.9894680105642384,47.5,tr13-0448
-0.8240229339578651,0.7737657884106444,0.3355059800910894,0.733949994250462,0.09203487678697304,0.08962592732383216,415.0,1.5977887223685094,65.0,tr13-0448
-1.5497739186424728,0.7260552048717781,0.22879372062414274,0.01189640175343809,0.008808215904467677,0.00840454981577343,845.0,2.275829123514251,60.0,tr13-0448
-1.530080221712797,0.6947128053023898,0.193961586601596,0.031191802401809576,0.004672140857166378,0.0002778298522865869,720.0,2.2247930270151866,55.0,tr13-0448
-1.4488247034377881,0.6326921479036349,0.15193859491378725,0.07018552053448565,0.03602657271853603,0.03661629983561668,797.5,2.0815168513414233,61.66666666666666,tr13-0448
-1.4474566957952055,0.7117489386935616,0.21391586376802446,0.04134757464009697,0.03908628165083733,0.07161224885459966,825.0,2.159205634488768,52.5,tr13-0448
-1.4943506103738582,0.7106649508991417,0.2164088650054546,0.019276740881557702,0.014309210014001528,0.006759440271619935,897.5,2.2050155612730005,55.0,tr13-0448
-1.4660490506606072,0.7369578364767313,0.22666359766590266,0.026581220756801027,0.04227748003116244,0.035282419886879884,790.0,2.203006887137339,60.0,tr13-0448
-1.5386306034461903,0.7202240510635436,0.2342737184673336,0.021457938803834842,0.004695503584007389,0.010820034875413498,810.0,2.258854654509734,52.5,tr13-0448
-1.4005680177130604,0.7681016514823875,0.2359950812821075,0.08823625272224223,0.09543899443966314,0.0936914663686827,850.0,2.1686696691954483,60.0,tr13-0448
-1.5296557538693667,0.7230777362255445,0.2386960833710843,0.030063777054707707,0.008333891689466166,0.015595016757966044,845.0,2.2527334900949114,58.33333333333334,tr13-0448
-1.4059397373474047,0.6355370937741659,0.16747518161504688,0.043262570304192005,0.043847346119773256,0.035874413465594154,790.0,2.041476831121571,60.0,tr13-0448
-1.4834021717828023,0.7052739097342687,0.2117822022463844,0.014063576564150028,0.014830383080458032,0.0020777450083910303,925.0,2.1886760815170714,60.0,tr13-0448
-1.5206852009985543,0.7185867129190491,0.2225148014823708,0.027527814572438532,0.005516863467890318,0.02703116291999281,827.5,2.2392719139176043,53.33333333333334,tr13-0448
-1.4906212661473184,0.7394365697478732,0.22194369583442394,0.04140167755864894,0.04845942379216859,0.014808810704979884,867.5,2.2300578358951912,56.66666666666666,tr13-0448
-1.5031818813694744,0.7340922477417371,0.21735903516351696,0.06371405146566822,0.04514306876615665,0.04458698238926556,805.0,2.237274129111212,60.0,tr13-0448
-1.5207726636728909,0.7190787424253204,0.2203994775606989,0.009370392314852816,0.0022928330085792425,0.0117411626077209,850.0,2.2398514060982118,52.5,tr13-0448
-1.5754592557396947,0.6687065221905639,0.17909439942032634,0.028880141248531457,0.045096562238719766,0.02102136424944736,822.5,2.2441657779302586,55.0,tr13-0448
-1.4795847379204818,0.7017539134210775,0.21611431851193286,0.007392172220154359,0.07821547680209416,0.034578618529927295,807.5,2.181338651341559,53.33333333333334,tr13-0448
-1.5171733532000333,0.7263818348445975,0.21404350087087312,0.05565826806579454,0.03843824535328568,0.036705833337656917,807.5,2.2435551880446307,60.0,tr13-0448
-1.5305121148684873,0.7196697245618321,0.23144885748475474,0.0133394502261317,0.005249830085718943,0.007995173892834663,840.0,2.2501818394303195,60.0,tr13-0448
-1.5550689011863694,0.7314830269080203,0.22400815294160373,0.015202385912613919,0.0027647738953665802,0.00692134532055655,885.0,2.2865519280943896,60.0,tr13-0448
-1.537046861472242,0.7240493856953406,0.22645309398281846,0.02629765971836904,0.005476031216006541,0.00443853632585444,907.5,2.2610962471675826,60.0,tr13-0448
-1.5434195782416489,0.727625040866001,0.223542865885478,0.014278947194926409,0.007288616391884494,0.0063050611918361405,885.0,2.27104461910765,60.0,tr13-0448
-1.5016156205394904,0.7147881644232466,0.21898849345101504,0.0281517454400158,0.006350026875579404,0.009792089591579659,842.5,2.2164037849627367,56.66666666666666,tr13-0448
-1.022067139811052,0.6221912987098226,0.1945688986455789,0.6788858991460048,0.11918070675954433,0.024087981914338332,792.5,1.6442584385208745,58.33333333333334,tr13-0448
-1.520599827400318,0.7273866968308518,0.23782273083842004,0.012338916596328131,0.00951390312137407,0.0059858019408926535,1045.0,2.2479865242311696,52.5,tr13-0448
-1.5071079909172913,0.7256034398209038,0.2210201702510456,0.002018636966590104,0.004648158646185396,0.004088873395949585,930.0,2.232711430738195,60.0,tr13-0448
-1.5517080515901067,0.6917059232841201,0.1940866441434399,0.007490242319490138,0.0023705129968896177,0.0002624232724364184,725.0,2.243413974874227,52.5,tr13-0448
-1.4625019562659607,0.7049632694832192,0.211931763703476,0.037326521402722516,0.008643265607154005,0.004006990445541758,895.0,2.16746522574918,60.0,tr13-0448
-1.4114589553480197,0.6494639106667214,0.18231145863238954,0.023721300736969254,0.036408047307179926,0.0019518524375175933,760.0,2.060922866014741,58.33333333333334,tr13-0448
-1.484783499552938,0.6495697009057352,0.20280842004370747,0.0009407165701420528,0.03173192571416361,0.03552999418825148,805.0,2.1343532004586727,50.0,tr13-0448
-1.529819065850079,0.7209375964360003,0.2073124549349856,0.01736046896720813,0.00900136769995471,0.0031745891894237525,807.5,2.2507566622860793,60.0,tr13-0448
-1.4765149988191828,0.7119800568216668,0.2405322648401712,0.007327784163613127,0.09414228163009514,0.0021938506082122555,810.0,2.1884950556408493,52.5,tr13-0448
-1.516485221933514,0.6836760045678446,0.19609929656032649,0.030954411246454445,0.019599727436977948,0.00329749000804258,717.5,2.2001612265013577,55.0,tr13-0448
-1.5016358336471989,0.7043175927432858,0.2149885333784309,0.016677480203808326,0.003129800739310129,0.007813956358783541,875.0,2.2059534263904848,45.0,tr13-0448
-1.5352675940560452,0.7158298258575128,0.22876779875607103,0.014861784005619813,0.007519751274040434,0.014570498891286091,885.0,2.2510974199135583,60.0,tr13-0448
-1.5363180893362545,0.7193186699120349,0.20452179779107255,0.020087540152165077,0.006636745487531626,0.011170546437197032,825.0,2.255636759248289,52.5,tr13-0448
-1.5072933740116918,0.7028467035324244,0.2161573598671975,0.0368869020509964,0.012452032095055049,0.00975466203952255,860.0,2.2101400775441165,56.66666666666666,tr13-0448
-1.5564143578323386,0.7271605664772148,0.2325405437476405,0.011472354998469549,0.0022861853583208136,0.0006922463182640892,880.0,2.2835749243095536,52.5,tr13-0448
-1.4841555639783701,0.6962016124505875,0.2221331360424546,0.020854029705680958,0.010005395968511244,0.005966610810807168,895.0,2.180357176428957,55.0,tr13-0448
-1.4918984716350754,0.6531933480282562,0.12623309483036038,0.04269616398347853,0.026191091865682914,0.0053676733190923176,805.0,2.145091819663332,62.5,tr13-0448
-1.4331525685307789,0.6774552549001159,0.18257720758966864,0.047396402748343454,0.03371311522410712,0.0017692582731782852,750.0,2.1106078234308945,61.66666666666666,tr13-0448
-1.5013872115748097,0.6420472193246812,0.17549408719956106,0.023493753870353257,0.028008073799544373,0.04830872124975392,800.0,2.143434430899491,55.0,tr13-0448
-1.497869054400239,0.714606460925739,0.22332361266223547,0.018378433155730844,0.006840572303148773,0.002338577861359631,930.0,2.2124755153259787,45.0,tr13-0448
-1.5403709239956669,0.7182893322010667,0.23599715610408556,0.01769235775796824,0.004710071842190746,0.009164564603896313,825.0,2.258660256196733,55.0,tr13-0448
-1.5218636518463498,0.6893352026468369,0.21667975270311726,0.08658494670972583,0.060991339035087286,0.05283900125053796,832.5,2.211198854493187,50.0,tr13-0448
-1.5292892938811933,0.7011665510890871,0.2161527771849725,0.024279700197142432,0.014970334607010803,0.011946969668289287,825.0,2.2304558449702805,52.5,tr13-0448
-1.4607717133968203,0.7012897591362494,0.18133329970327308,0.03288125607136316,0.0007813005977908016,0.00023128287075252496,745.0,2.16206147253307,60.0,tr13-0448
-1.530975608536758,0.7165347915482125,0.2234296824453118,0.016614617559584044,0.009128475171678864,0.01526311566063343,895.0,2.2475104000849706,60.0,tr13-0448
-0.9958677683079084,0.7595208186621686,0.309664645110422,0.7018574547752352,0.0834360317746473,0.08959871046640028,568.3333333333334,1.755388586970077,60.0,tr13-0448
-1.5383795745938051,0.7192316970314659,0.2352485691248611,0.017523930003727484,0.0040826505673291005,0.00894144492866822,825.0,2.257611271625271,55.0,tr13-0448
-1.4029023680620762,0.6651473524831539,0.18308352009749013,0.02498808926338114,0.035361106055304625,0.0019815032649695974,755.0,2.06804972054523,62.5,tr13-0448
-1.461669404452667,0.7492664145101909,0.2260190788864628,0.007517810202902542,0.0568559239415708,0.016707036561920657,835.0,2.210935818962858,55.0,tr13-0448
-0.7800901414966379,0.8241548563002534,0.3757688112842658,0.698610543854713,0.08579935124406958,0.03286047616709541,540.0,1.6042449977968911,65.0,tr13-0448
-1.4996646780521192,0.7209549506430144,0.20869974936868554,0.05225956060343833,0.04127680852332034,0.03840962283951236,797.5,2.2206196286951343,60.0,tr13-0448
-1.5147839900969997,0.6848763534618405,0.20468831581226626,0.006983551379693531,0.01070217780080912,0.0033437460695769088,805.0,2.1996603435588398,55.0,tr13-0448
-1.5013382918931926,0.7060936853959288,0.2115524860274442,0.04718669764342809,0.013683194827308455,0.0022404437029020507,900.0,2.2074319772891213,55.0,tr13-0448
-1.3822207582436434,0.5955468870317175,0.17322607032277845,0.03290926266428675,0.017056910727048024,0.0281835285432527,792.5,1.977767645275361,51.66666666666666,tr13-0448
-1.532356357549466,0.6951609687674267,0.1899126236203018,0.028042443031144004,0.005255558945445395,0.005906843937707647,727.5,2.2275173263168933,55.0,tr13-0448
-1.5296689260712952,0.7193926061192654,0.2295324075815829,0.01989986923070593,0.0021216936606151694,0.0083422700167186,902.5,2.2490615321905603,60.0,tr13-0448
-1.3872997954954709,0.6082457199562031,0.16713121308338472,0.030595547918528476,0.02270454980395507,0.022392156769558608,777.5,1.9955455154516732,53.33333333333334,tr13-0448
-1.4977346190491438,0.7164390715554015,0.22016905752641547,0.015007132167751428,0.00615731622242802,0.004852669418538399,900.0,2.2141736906045453,50.0,tr13-0448
-1.5082609108039902,0.7369005999522259,0.2438085327793127,0.0,0.0,0.0,,2.245161510756216,45.0,tr13-0448
-1.5224400979677182,0.7259805450362965,0.22408041034240406,0.02982132199060786,0.0072426003373354956,0.026724958970295646,837.5,2.2484206430040152,53.33333333333334,tr13-0448
-1.4952251565734267,0.7168436423679547,0.21656566973088626,0.036930832729357814,0.003673699316723261,0.011013602099487136,862.5,2.212068798941382,55.0,tr13-0448
-1.5437171560591203,0.7199108011583067,0.2339581791087942,0.0013960285549641238,0.002438605685382677,0.006754838466946495,920.0,2.2636279572174267,60.0,tr13-0448
-1.5109362087930165,0.7053977124660067,0.2210949635414329,0.049405440156026825,0.015775752705128668,0.011521097867552465,920.0,2.2163339212590234,56.66666666666666,tr13-0448
-1.4813541313541592,0.7275216985892873,0.22167957884625386,0.030651783874463174,0.037009074675255035,0.02965771944320665,792.5,2.208875829943447,60.0,tr13-0448
-1.5532121265116572,0.7225463190743642,0.2342270648636775,0.010862418230896329,0.008737715416041642,0.010302108084648648,842.5,2.275758445586021,55.0,tr13-0448
-1.517967748732182,0.7135189375253109,0.23046674282837296,0.0551726996687774,0.019382273084391232,0.002986765890101923,895.0,2.2314866862574934,56.66666666666666,tr13-0448
-1.5010333816543604,0.7016517297875455,0.2153052736352932,0.013643733388371488,0.0045545675655799785,0.006395773977032297,895.0,2.2026851114419057,50.0,tr13-0448
-1.5220630361704297,0.7059509906650319,0.2102444733348113,0.027801963632293692,0.007238877797887312,0.01592286905174688,827.5,2.228014026835462,56.66666666666666,tr13-0448
-1.502824986753622,0.721539107166322,0.22592603010942144,0.01340556243046753,0.004416308233244626,0.032574778755545875,830.0,2.2243640939199443,50.0,tr13-0448
-1.503079643037734,0.6765690853109723,0.1949768135790637,0.08560124106753611,0.059107831772955616,0.06431369502779859,827.5,2.1796487283487065,50.0,tr13-0448
-1.359045072405512,0.5842718170306482,0.16945543763307352,0.0036320946377009773,0.007417930623744463,0.033894157447567484,795.0,1.94331688943616,52.5,tr13-0448
-1.5156105000092086,0.7148689643824708,0.2066434269453313,0.03482145901381645,0.01743060581594365,0.0022554355973476484,830.0,2.230479464391679,60.0,tr13-0448
-0.4357743554450548,0.326090038226683,0.02235164250829215,0.021550195275714938,0.026536289837588187,0.020226027522423255,521.6666666666666,0.7618643936717377,35.0,tr13-0212
-0.5197765180297198,0.2764727081787009,0.015487234691324368,0.03186689878837972,0.017416457037484318,0.017947268779435796,523.3333333333334,0.7962492262084208,31.25,tr13-0212
-0.5294320334398918,0.3055876558890364,-0.019364077114932533,0.0137526912506993,0.01648553365246146,0.011190232607226168,542.5,0.835019689328928,30.0,tr13-0212
-0.4842870605685667,0.3405744406792355,-0.0218928443260038,0.005198427601937723,0.012003762322599356,0.003393848985614084,547.5,0.8248615012478021,30.0,tr13-0212
-0.4641743129606486,0.3391399876987645,-0.004323814128262906,0.01225460707579908,0.011567381746209537,0.004729675367181006,553.3333333333334,0.8033143006594129,32.5,tr13-0212
-0.4564880754888034,0.3747815678848982,-0.004487989375678177,0.006823872609294619,0.006800447406801611,0.014013393465708344,555.0,0.8312696433737017,31.66666666666667,tr13-0212
-0.4548955494377539,0.3729657611165782,-0.01054517455785944,0.00953971756415041,0.011266916245038642,0.007496638339645198,548.3333333333334,0.8278613105543321,31.25,tr13-0212
-0.4633026024102984,0.3772860904584237,0.006706533786809488,0.013132803652725698,0.025500350504886287,0.012551155351434504,546.6666666666666,0.8405886928687221,35.0,tr13-0212
-0.4440273105447659,0.3844779781956128,-0.003630411977217049,0.007251439720607941,0.009761731954683276,0.0018168026777303683,545.0,0.8285052887403787,35.0,tr13-0212
-0.4680638415426434,0.3691272263049672,4.891565559457284e-05,0.012902180751678842,0.016277727294569017,0.0069869849056222386,548.3333333333334,0.8371910678476104,32.5,tr13-0212
-0.4736110061160909,0.3677370564120927,-0.00046027496206680284,0.01237299268067709,0.01884877297048725,0.01089023904614277,550.0,0.8413480625281835,35.0,tr13-0212
-0.4485788231953877,0.3841471766570541,-0.002693362687951925,0.008294957574626909,0.020056971389843248,0.003212529132239545,555.0,0.8327259998524417,33.333333333333336,tr13-0212
-0.467108069982044,0.3549849315440569,-0.0028693731239498397,0.008007832473619988,0.00997987519788726,0.006354125403656464,550.0,0.822093001526101,31.25,tr13-0212
-0.459374380974511,0.3687455690735579,-0.003522143416532843,0.013610003353250156,0.0157631321555086,0.00389086665208724,555.0,0.8281199500480688,33.333333333333336,tr13-0212
-0.48614677909597903,0.3299766507048578,-0.0035090756322094948,0.013723923664361462,0.010147000151253594,0.009313748982475613,552.5,0.8161234298008369,35.0,tr13-0212
-0.4619938885775976,0.3739914251648485,-0.0033962578376304352,0.004869674252246057,0.003839048400670228,0.007140027526022067,550.0,0.8359853137424459,35.0,tr13-0212
-0.4521582029031272,0.3565967265531138,-0.0006449355926015999,0.011591023089399695,0.010477044670106177,0.005819149216162508,552.5,0.8087549294562408,33.333333333333336,tr13-0212
-0.42724275599729294,0.41141304251470256,-0.010467601367568649,0.014451416229301944,0.0205459761920521,0.026911703313968662,546.6666666666666,0.8386557985119956,37.5,tr13-0212
-0.4519499940136581,0.3603235157069497,0.00860527225531217,0.016051299880278067,0.010807871175266614,0.011665750643289816,528.3333333333334,0.8122735097206077,33.75,tr13-0212
-0.4587680801344034,0.35727493695759205,-0.0003032499091919563,0.017496521376226058,0.017058351835542863,0.011632430158502034,530.0,0.8160430170919953,33.333333333333336,tr13-0212
-0.4502620055572894,0.37620510474257945,-0.013922073827250456,0.007875796732344719,0.015057538715931048,0.0036588570119434334,547.5,0.8264671102998689,31.66666666666667,tr13-0212
-0.4778283326237526,0.34138809750244603,-0.0017041307572454195,0.011429075001364034,0.00595810579682624,0.0060316573746493785,548.3333333333334,0.8192164301261986,33.75,tr13-0212
-0.4660298704198271,0.3794858855219425,0.0036373911611656093,0.005997753713227555,0.008353632104242092,0.0017018615900925474,555.0,0.8455157559417698,31.66666666666667,tr13-0212
-0.4710106277759896,0.3615788367237039,0.006978058786404032,0.012103855408735572,0.008131747019669431,0.005948100102567019,552.5,0.8325894644996935,33.333333333333336,tr13-0212
-0.4643880866257952,0.3740054317337368,0.006477517381347737,0.010262944339951487,0.00949262396546005,0.002872653850491706,556.6666666666666,0.8383935183595319,33.75,tr13-0212
-0.4615960585944774,0.3533939132834872,-0.0030708657493827038,0.005083176976139042,0.012402341564864071,0.008236065936626355,550.0,0.8149899718779646,31.66666666666667,tr13-0212
-0.4831433652746466,0.3494810262882192,-0.002809445786203375,0.02855334423599178,0.01913581149539708,0.00971787666663512,553.3333333333334,0.8326243915628657,33.75,tr13-0212
-0.4715168019544832,0.35307474718318604,0.005714637841726957,0.013338985515927793,0.025845918359889586,0.009226108020804723,548.3333333333334,0.8245915491376692,35.0,tr13-0212
-0.47199260879747296,0.30514400217580584,-0.011323956118152591,0.011641764325676093,0.07046984085270651,0.004875404871570822,555.0,0.7771366109732788,31.66666666666667,tr13-0212
-0.4607894168220492,0.3759012300835602,-0.005102992928037136,0.005080875343645223,0.0022498083296382254,0.00750476817904245,550.0,0.8366906469056093,35.0,tr13-0212
-0.4617086981692025,0.3587994116801119,0.002375637893073938,0.005137618776424848,0.0119059259382245,0.0034172812862948232,557.5,0.8205081098493147,35.0,tr13-0212
-0.5086878524322926,0.3112051383245459,-0.01866641694937965,0.0378525497754894,0.01727709297291078,0.009766072315555964,541.6666666666666,0.8198929907568384,30.0,tr13-0212
-0.4323294879543561,0.39745429955884015,-0.025067471036980718,0.0034066489644494053,0.02599392104064424,0.013318889447763016,545.0,0.8297837875131963,33.333333333333336,tr13-0212
-0.4522783488954836,0.3658614698388796,-0.015037221977256912,0.010129292967725028,0.005616116221114859,0.005111451018464544,552.5,0.8181398187343634,30.0,tr13-0212
-0.4771523431129075,0.3343555475352581,0.013325792106201004,0.01552564513955505,0.01439351645753425,0.004573603493729025,547.5,0.8115078906481656,35.0,tr13-0212
-0.45552047813840596,0.35951304751701363,-5.271483605378343e-05,0.011605108636611627,0.010384658523899384,0.005142863936896616,555.0,0.8150335256554198,33.75,tr13-0212
-0.4754271088532317,0.3563585946339747,-0.005440892038487386,0.02800432302863407,0.02017878116971449,0.005456555969835768,551.6666666666666,0.8317857034872063,32.5,tr13-0212
-0.4671335882605786,0.3655965109433608,-0.0008391824394409725,0.00811501140024632,0.01991304885628049,0.005213489140251775,551.6666666666666,0.8327300992039395,32.5,tr13-0212
-0.4214927343958523,0.4219218216227869,-0.024223639741216,0.012091605119885458,0.011005078988469957,0.014447791067486029,547.5,0.8434145560186392,35.0,tr13-0212
-0.5352712347709431,0.301749061867715,-0.00992724698997629,0.0066759215263550225,0.016870361238823458,0.018061078925157046,532.5,0.8370202966386581,31.66666666666667,tr13-0212
-0.4754901002173266,0.38535967063413495,-0.0048007565567482575,0.012841232181472706,0.014799402088160997,0.005812528811391376,552.5,0.8608497708514616,35.0,tr13-0212
-0.4672662845676139,0.3687826535216227,0.004638702859243117,0.013296648230023331,0.013648009863405036,0.0038275276951908743,555.0,0.8360489380892366,33.75,tr13-0212
-0.465770480154029,0.3644710438864702,-0.001915695360173621,0.007993905610150327,0.0017204162013934054,0.007057562526629728,550.0,0.8302415240404991,33.333333333333336,tr13-0212
-0.4712850690644783,0.3510282399938037,-6.719523050245241e-05,0.003963738457835443,0.008377086597289885,0.004735441803509179,550.0,0.8223133090582819,31.66666666666667,tr13-0212
-0.4856661448789772,0.3554652115518448,-0.004745246336762645,0.025026080584929486,0.023231840492476886,0.006145158986277034,552.5,0.8411313564308219,33.333333333333336,tr13-0212
-0.4616884369147846,0.37446259667996995,0.0061379971467644965,0.010549167476691428,0.01092293674707392,0.0032468072883312,555.0,0.8361510335947546,33.333333333333336,tr13-0212
-0.4778512426097804,0.3095546698198046,-0.012207460175978336,0.014304502015137518,0.06150496581213415,0.0044909818254905065,555.0,0.787405912429585,32.5,tr13-0212
-0.4602895803662048,0.3589884831117279,0.010440028990678682,0.01696250135419718,0.00953033475807822,0.010481712167175285,545.0,0.8192780634779325,35.0,tr13-0212
-0.4632450891314488,0.3895907851060268,-0.0016911993680399572,0.01222756836165748,0.010340002113780415,0.003624462985082193,550.0,0.8528358742374754,35.0,tr13-0212
-0.4668315059579112,0.37064366137488863,0.002618165905674052,0.015329003308961631,0.01531352876998414,0.0017896962555095546,555.0,0.8374751673327999,35.0,tr13-0212
-0.4574310977786977,0.3905862525648669,-0.0010110627604056578,0.01461309540716289,0.009119188514860632,0.0033526566127186465,551.6666666666666,0.8480173503435644,35.0,tr13-0212
-0.458175310087747,0.37058406204213856,-0.007601163775085436,0.0065927391740101355,0.009356373741974471,0.013279945852372377,555.0,0.8287593721298856,31.25,tr13-0212
-0.459349494080626,0.3587170526822561,-0.006446656739326261,0.017578773418411034,0.018094625333742658,0.0058738740489388186,535.0,0.818066546762882,33.333333333333336,tr13-0212
-0.4543223785878638,0.367771612942568,-0.011121854160028569,0.00945970951824094,0.005882304912745193,0.008098488381678644,550.0,0.8220939915304318,30.0,tr13-0212
-0.460573598598209,0.3690092773645236,0.0017217621807598556,0.010410301172042077,0.013987155202214966,0.00983665869191147,556.6666666666666,0.8295828759627325,33.75,tr13-0212
-0.4890386596359661,0.3123748413527602,-0.017395953350604274,0.035026078326974665,0.01957987704475682,0.005613502509708503,540.0,0.8014135009887262,30.0,tr13-0212
-0.4625243317356162,0.35358092031744404,4.4137110690734005e-06,0.016490132609424224,0.016099000041056834,0.010088064445373905,530.0,0.8161052520530602,33.75,tr13-0212
-0.4675469976018543,0.3624348943221711,-0.0015023909731754518,0.003930038764799143,0.02022754676961013,0.007538529230481002,557.5,0.8299818919240254,33.333333333333336,tr13-0212
-0.4670753394656943,0.3580910993649904,-0.0018812149491933886,0.009246416752123404,0.009705879549358866,0.007065931399834789,550.0,0.8251664388306846,31.66666666666667,tr13-0212
-0.4575154232221221,0.3618564042378281,-0.00855270601230883,0.011935306752175143,0.020320318822599576,0.0057176564045487745,552.5,0.8193718274599502,33.333333333333336,tr13-0212
-0.4684119649359039,0.3523375886840673,-0.0006252391117092697,0.006045461018192539,0.007600978020751987,0.004213376997833663,551.6666666666666,0.8207495536199712,31.25,tr13-0212
-0.4743171153265564,0.34163933699400745,-0.008394565023659777,0.014286894710903619,0.06543669691622317,0.008600626455237036,555.0,0.8159564523205639,33.333333333333336,tr13-0212
-0.4777845083278887,0.3387890884034403,0.0009755703202568838,0.013196867996110813,0.004506954595737777,0.0044479953673329,547.5,0.8165735967313289,33.333333333333336,tr13-0212
-0.4850519027911386,0.3398340551154166,-0.00425999684133964,0.014961269773390209,0.023682480734996292,0.009693944703101752,547.5,0.8248859579065552,35.0,tr13-0212
-0.4700316262857426,0.36604161997375945,0.0013270614247727947,0.01511340660001681,0.014768982179569488,0.006040815482225368,550.0,0.8360732462595021,35.0,tr13-0212
-0.4277551178330338,0.4000055723236522,0.006116614322995821,0.014535473424057109,0.029792010720149725,0.02425665445809419,543.3333333333334,0.8277606901566859,37.5,tr13-0212
-0.4532994894789911,0.3753511427978674,-0.011537867471546276,0.008613945457843214,0.013123827838910836,0.005205165301421882,546.6666666666666,0.8286506322768584,32.5,tr13-0212
-0.4774554222909424,0.3413776448440479,-0.0007378634150956706,0.013176067649990993,0.006879796209382146,0.006691275210366287,550.0,0.8188330671349903,33.333333333333336,tr13-0212
-0.4532356827793141,0.3745269895131047,-0.003478483928018743,0.010801100148913877,0.024069806356794225,0.0030966923731504227,555.0,0.8277626722924187,32.5,tr13-0212
-0.4602874242033822,0.3677105259543436,-0.00765198802402465,0.016365255463967214,0.026373332504597426,0.0075294460727555095,542.5,0.8279979501577257,35.0,tr13-0212
-0.4574176653229064,0.3663852934496519,-0.00018428186570469283,0.006718185550099868,0.01692692925575479,0.009941159826426942,552.5,0.8238029587725583,33.333333333333336,tr13-0212
-0.4748291227787988,0.33744522691719525,-0.020562992357683097,0.016988981689754032,0.011723637180018776,0.0037341902704340893,545.0,0.8122743496959941,30.0,tr13-0212
-0.4770377876686088,0.33863441229031305,-0.0120419787737693,0.01146225091125027,0.010667871225650005,0.00985590554506314,553.3333333333334,0.8156721999589217,31.25,tr13-0212
-0.4815471123573217,0.3407118799458375,-0.005087499295741874,0.01430840182826315,0.020565909890430664,0.008516672112170403,550.0,0.8222589923031594,35.0,tr13-0212
-0.5292932456052212,0.3030384353077489,-0.01043135456358626,0.011858963258481,0.014779860210769668,0.015665704653569746,536.6666666666666,0.8323316809129702,31.25,tr13-0212
-0.4764398658568269,0.3457223637541875,-0.005340191636028292,0.026084379583447864,0.017085712562259738,0.008143961353281463,550.0,0.8221622296110144,32.5,tr13-0212
-0.4695238482699238,0.3647794472457845,0.006362339560861446,0.011896522613186156,0.00922295106028616,0.006095420230286045,555.0,0.8343032955157085,33.333333333333336,tr13-0212
-0.4655930012883523,0.3594240590766269,-0.0016550848711393005,0.008849345389661903,0.01939869509739156,0.00579463874989856,550.0,0.8250170603649792,33.333333333333336,tr13-0212
-0.4777287137287022,0.3494630470230197,-0.0018226329303379948,0.018131932854957504,0.026434775879372662,0.00939689584033236,546.6666666666666,0.8271917607517218,35.0,tr13-0212
-0.4569314360689762,0.3918240155041217,-0.006287765210327912,0.009108245748450094,0.012982050208400502,0.00901635074494865,548.3333333333334,0.848755451573098,33.75,tr13-0212
-0.4638034710871519,0.3543865797920373,-0.0015383569401913545,0.007377653191871003,0.013714021409804012,0.009530284263158295,552.5,0.8181900508791892,33.333333333333336,tr13-0212
-0.44478883332702585,0.3690643896797579,0.018040754902176086,0.011461775290287564,0.007710817244544009,0.015367700104402587,532.5,0.8138532230067836,38.333333333333336,tr13-0212
-0.4587683908068098,0.3656599777262733,0.006346427461139919,0.014924372421317854,0.014200245829791203,0.01151835222219563,545.0,0.8244283685330831,35.0,tr13-0212
-0.4267063471023359,0.4125093363661489,-0.0008101944100208346,0.01665253644442849,0.02362291421644713,0.024343192007294182,547.5,0.8392156834684847,38.333333333333336,tr13-0212
-0.4556626792672398,0.3651682392591671,-0.002367957113683893,0.011488709156945234,0.02054578494020423,0.002802307201303446,555.0,0.8208309185264068,31.66666666666667,tr13-0212
-0.5298476617154748,0.3027843373910134,-0.013017360370377231,0.011931916361934016,0.01507996679899871,0.014654638162019791,540.0,0.8326319991064881,31.25,tr13-0212
-0.4557473744721547,0.29479416970542466,0.04282616315587445,0.01122274279665872,0.012310671145143805,0.007020113142819221,520.0,0.7505415441775795,33.333333333333336,tr13-0212
-0.4705340578182371,0.35840546332886275,0.0003034620503838519,0.02123863032207281,0.013025234590856787,0.009335705030378288,552.5,0.8289395211470998,33.333333333333336,tr13-0212
-0.4637769377995689,0.3561419847747127,0.0029681837760292666,0.007952117267576659,0.015238041777414788,0.011062144274668487,550.0,0.8199189225742818,33.333333333333336,tr13-0212
-0.4613215573068592,0.3623173336001146,-0.006473577508516161,0.0122596341896641,0.01761601218835081,0.006122664622221898,553.3333333333334,0.8236388909069738,33.75,tr13-0212
-0.4716525101109193,0.3414415177220273,-0.006798257678335047,0.014808115834563547,0.013061245975214244,0.007418890969047366,553.3333333333334,0.8130940278329466,31.25,tr13-0212
-0.4600758140563467,0.3743493776635391,-0.0012540870213942428,0.004111236264316538,0.004374761349488239,0.007043986149385464,552.5,0.8344251917198858,35.0,tr13-0212
-0.4619351177809783,0.38387935309661103,-0.0055366858721375405,0.010829734338681405,0.013343466550311182,0.007363141198378799,550.0,0.8458144708775893,35.0,tr13-0212
-0.4650970922140803,0.3684724811913587,-0.0002441578877371226,0.005439670279231086,0.02040153430128563,0.006882697052100096,556.6666666666666,0.8335695734054391,32.5,tr13-0212
-0.46489102014152,0.3478452956249056,0.006585062150923274,0.007850739302354196,0.02795162499903176,0.010510195290125843,547.5,0.8127363157664255,35.0,tr13-0212
-0.4638389321973096,0.3708970053750202,0.00562371829280976,0.014251324498885812,0.013269162448664834,0.005431601510667929,555.0,0.8347359375723298,33.75,tr13-0212
-0.4492817202894103,0.3813192415109629,0.00026864214354067537,0.011057305223699371,0.010069826731139505,0.006934222962030393,545.0,0.8306009618003732,35.0,tr13-0212
-0.4706855974240336,0.36391874762161736,0.006309999897725143,0.010497353047590668,0.008125240379487223,0.00527956713745047,553.3333333333334,0.834604345045651,33.75,tr13-0212
-0.4672619259361253,0.3776380573705089,-0.005112226372508958,0.006548128534799729,0.0090322963161677,0.008459736064187684,550.0,0.8448999833066342,35.0,tr13-0212
-0.477065438843123,0.3366660058048067,-0.008082043916593772,0.013235351761606822,0.011672166563267904,0.008172769574955205,555.0,0.8137314446479297,31.66666666666667,tr13-0212
-0.4684914944895383,0.3594933549454863,-0.0014699592111795804,0.008374882221269597,0.008749402008657096,0.0061605952436859755,550.0,0.8279848494350246,32.5,tr13-0212
-0.4789168407859923,0.3028400559634637,-0.021789987554776263,0.01620187186939196,0.030840073921672057,0.01671468373216891,555.0,0.7817568967494561,31.66666666666667,tr13-0212
-0.4567604172063624,0.3670063255632539,-0.005169406048111622,0.00592844314084902,0.014698562622935969,0.012193210543699259,553.3333333333334,0.8237667427696163,32.5,tr13-0212
-0.4732943556844919,0.2899935188063289,-0.020737310316059267,0.017079593238831285,0.03476252537445438,0.01458971820518006,555.0,0.7632878744908208,31.25,tr13-0212
-0.4709502977250791,0.3513274650988601,-0.005506155970470135,0.016056514156095374,0.014915900889859841,0.007661080799278631,548.3333333333334,0.8222777628239392,31.25,tr13-0212
-0.4713062942658834,0.3757064654275872,-0.001681649277722665,0.013273493499145674,0.02106703203834037,0.0073841457895719035,551.6666666666666,0.8470127596934707,35.0,tr13-0212
-0.4520383169903795,0.3874195027362435,0.002797986959839472,0.010237088728582068,0.011024497412812823,0.006487019549213974,547.5,0.839457819726623,33.333333333333336,tr13-0212
-0.4837689697231624,0.3439785307260817,-0.0022145229911500392,0.026312166205079302,0.019418160327227096,0.007025163636624833,550.0,0.8277475004492442,31.66666666666667,tr13-0212
-0.4845443267101306,0.3382323873392259,-0.018873598493764014,0.004523968915921775,0.011159004165490831,0.005998849422127309,550.0,0.8227767140493564,31.25,tr13-0212
-0.452733114875753,0.3756976639585897,0.0005120509159720077,0.016334338696883496,0.017399721617569443,0.007345445898085488,545.0,0.8284307788343429,35.0,tr13-0212
-0.4814402638770788,0.3037365285668471,-0.02059805578057228,0.014696206358922397,0.026753385000902196,0.014621819081868546,556.6666666666666,0.7851767924439259,32.5,tr13-0212
-0.4514864809413114,0.3704728056752319,-0.013081374162414523,0.008878800402646587,0.00935140768246585,0.005574156497631988,553.3333333333334,0.8219592866165433,30.0,tr13-0212
-0.4786145457107076,0.351926147055504,-0.008220706603824318,0.03170200513386907,0.021548192032049145,0.002964657596636821,552.5,0.8305406927662116,33.333333333333336,tr13-0212
-0.4663732698278518,0.3376264507322456,-0.0033605334825465537,0.013449617623846643,0.013009326808895437,0.005110264216480873,552.5,0.8039997205600974,31.66666666666667,tr13-0212
-0.4649952584145445,0.3565898423344841,0.0015213107248440627,0.006714417030974733,0.012474729853358398,0.009808386068250059,555.0,0.8215851007490287,32.5,tr13-0212
-0.4690417575286794,0.3405263466215347,0.008112386793735351,0.01944554031923026,0.01641999607489469,0.009860383945086674,550.0,0.8095681041502141,33.75,tr13-0212
-0.4787582240776052,0.2778392258300493,-0.012707353106234769,0.016417508205252104,0.03194271241143773,0.005088449525703609,555.0,0.7565974499076545,31.66666666666667,tr13-0212
-0.4592364508096643,0.3491305480105517,0.0015988114175445724,0.003812103641357916,0.016574461781615906,0.007908706277188135,551.6666666666666,0.8083669988202159,32.5,tr13-0212
-0.4759186300706162,0.3596922023071703,-0.005554404096290919,0.020621599695751933,0.022653639069278527,0.007875980644037724,545.0,0.8356108323777865,35.0,tr13-0212
-0.4609967715727531,0.3632085837191027,-0.0009621884053043802,0.004617018892651539,0.01283104432784478,0.0064947372338442855,555.0,0.8242053552918558,35.0,tr13-0212
-0.7910185617942114,0.6282859954698617,0.4076100517285501,1.0116846318028805,0.08068915446862986,0.04792583581181559,551.6666666666666,1.4193045572640732,67.5,tr12-0646
-1.1173543914112996,0.6897495071068691,0.4144328357339282,0.985603522718922,0.07399885779050823,0.04344417285398197,640.0,1.8071038985181689,65.0,tr12-0646
-0.4122874341716283,0.6289799056685018,0.42658207826301214,0.9607846878090998,0.07916909796999112,0.034835510929187456,650.0,1.0412673398401304,68.33333333333333,tr12-0646
-1.1182083720060114,0.6682641320373985,0.4065268214076106,0.9979829147586404,0.0712565682286658,0.032903955473395,622.5,1.7864725040434095,61.66666666666666,tr12-0646
-0.4033738116117545,0.6177207557491281,0.4179334121497831,0.9897997581586316,0.07293919275580885,0.02584691731892552,627.5,1.0210945673608829,70.0,tr12-0646
-0.7786763478753285,0.6692954255879104,0.422088257202126,1.0325322480458865,0.09645296069796146,0.04463163269023794,528.3333333333334,1.4479717734632391,67.5,tr12-0646
-1.1135846516489258,0.6686612374308089,0.3978966913910215,0.9948660374111206,0.09293793995400564,0.025766385292607063,617.5,1.7822458890797346,61.66666666666666,tr12-0646
-0.4212516792911685,0.6453828432525844,0.4336988548757456,1.0027209283023426,0.0792338912555689,0.038118966706931386,597.5,1.066634522543753,70.0,tr12-0646
-1.1393033005007742,0.6293720576662093,0.41110069122429,0.9483719950272496,0.05437639845257223,0.02983443468950576,677.5,1.7686753581669834,61.66666666666666,tr12-0646
-0.4358956396880979,0.6426761002242937,0.4256569021313984,0.9876136146266388,0.09477105486609437,0.05039912435575492,650.0,1.0785717399123915,68.33333333333333,tr12-0646
-0.7867489625864815,0.6334603918724575,0.4247903855410364,1.0290961508554113,0.06447750372166254,0.03527220534324471,536.6666666666666,1.4202093544589391,65.0,tr12-0646
-0.7955577823745175,0.6504745716614148,0.4248140152014733,1.0387765013896697,0.06900442282058306,0.03795354691833755,355.0,1.4460323540359319,65.0,tr12-0646
-0.4486962467238452,0.6239351326111034,0.44309354578592575,0.9940299481444062,0.05430958947775821,0.043208907872504594,590.0,1.072631379334949,68.33333333333333,tr12-0646
-0.7747082733082896,0.643579577402713,0.42514481143652494,0.9962420976747852,0.07798804902449916,0.039659924551827964,518.3333333333334,1.4182878507110024,65.0,tr12-0646
-1.1462711628746445,0.7030594566895645,0.4082615222660609,1.020820103520052,0.07313502256082287,0.04966613857162183,575.0,1.8493306195642087,61.66666666666666,tr12-0646
-0.4280325702608133,0.610358149682891,0.4320350767492443,1.0008861702238747,0.043203218940765724,0.0348331356687289,622.5,1.038390719943704,68.33333333333333,tr12-0646
-0.7536256396940688,0.6744592969254293,0.41572574007882296,1.0658096636339958,0.10193752922558824,0.044710890116960576,513.3333333333334,1.428084936619498,65.0,tr12-0646
-1.1202186550495912,0.6866829350796175,0.4106489771247215,1.0132479520119204,0.07033982746425364,0.04202712115163983,617.5,1.8069015901292087,61.66666666666666,tr12-0646
-0.44552690451670657,0.6359141545507054,0.4349024210945029,0.981015500427928,0.08133065630682375,0.04352994042897335,642.5,1.0814410590674122,68.33333333333333,tr12-0646
-1.135124767512856,0.6838117572534389,0.4157008057462135,0.9979298980712552,0.07455473036384111,0.03900213401790115,635.0,1.8189365247662952,61.66666666666666,tr12-0646
-0.7632502505308953,0.6536662661906752,0.4162387198318317,1.0408324707209566,0.07813984576633592,0.04081305066167895,360.0,1.4169165167215707,65.0,tr12-0646
-0.7799241228940097,0.6543684193711874,0.41912255429314893,1.034375220570409,0.08876506064743478,0.03834974871096136,536.6666666666666,1.4342925422651966,66.25,tr12-0646
-1.1336177155772658,0.7072751652591549,0.40183555216225697,0.9863331863697108,0.09654216235832516,0.045612051562951984,600.0,1.8408928808364209,63.33333333333334,tr12-0646
-0.4193753398861038,0.6499270062209458,0.44625291940625295,1.0041901136466782,0.058954283605854224,0.04613491450069903,597.5,1.0693023461070497,68.33333333333333,tr12-0646
-0.780708830385481,0.6875966042426291,0.4206983728307157,1.0521908360518752,0.10677129796177136,0.05984245144837742,511.6666666666666,1.4683054346281104,66.25,tr12-0646
-1.1158965446753244,0.6845709731609761,0.4125246350052383,1.0099378287580658,0.06566295843538134,0.037281617008844636,585.0,1.8004675178363003,63.33333333333334,tr12-0646
-0.027255371300010083,0.4640886172755023,0.30950970725369553,0.17341175361750874,0.09163173046572977,0.11219571834600632,411.25,0.4913439885755125,75.0,tr12-0646
-0.14686154299682194,0.4091978004614919,0.2303211870528032,0.006810100628591693,0.005762750688465794,0.004858308729252178,225.0,0.5560593434583139,75.0,tr12-0646
-0.1475981756938728,0.41126672606716136,0.23258007839984235,0.009161213402491913,0.00046002181432294444,0.001108929297000507,257.14285714285717,0.5588649017610341,75.0,tr12-0646
-0.7605408434229637,0.6721293587358756,0.4154568979559199,1.0467947735659813,0.09677135967564192,0.044583863740942566,521.6666666666666,1.4326702021588396,67.5,tr12-0646
-0.41827161430781423,0.6174892700620022,0.4393222303593005,0.9791368812040006,0.05108415720237492,0.03223141730632967,617.5,1.0357608843698165,68.33333333333333,tr12-0646
-0.7807364192276816,0.6474543743346439,0.4157877684902147,1.043207064080437,0.08249036513887628,0.04687486744890874,553.3333333333334,1.4281907935623257,65.0,tr12-0646
-0.7688448686001131,0.6681946971884767,0.4137882628849419,1.0507271671036087,0.09280806635203986,0.04059146045487707,536.6666666666666,1.43703956578859,65.0,tr12-0646
-0.4149975313138493,0.6043443982879858,0.42692018869070464,0.9942315628513918,0.0482759305023619,0.023730073373340783,622.5,1.0193419296018351,68.33333333333333,tr12-0646
-0.7920114662430775,0.6338958821767211,0.42533335837848296,1.0186330865159896,0.06521851681044838,0.03625784247467855,541.6666666666666,1.4259073484197984,65.0,tr12-0646
-0.4322043732450856,0.6806478329449077,0.43131303255080106,0.9951478855134241,0.12250308187033362,0.06575820346726641,590.0,1.1128522061899937,68.33333333333333,tr12-0646
-0.14652795780018582,0.4119345536357932,0.23314839552741476,0.008604821666852057,0.000486469607826671,0.0012578116358290242,225.625,0.5584625114359789,75.0,tr12-0646
-0.1548297980440213,0.411046505713769,0.23311467930302224,0.013530196225546184,0.0002935311338946734,0.0014761037833000055,256.42857142857144,0.5658763037577903,75.0,tr12-0646
-1.1209768064865775,0.6459289132018573,0.4129353729225675,0.9839467158863876,0.04789625508695195,0.031691584324311614,607.5,1.7669057196884346,61.66666666666666,tr12-0646
-1.1185817236293665,0.7138491688156288,0.40295446840191307,1.0075341237230722,0.08187303044516206,0.04224902643593167,600.0,1.832430892444995,63.33333333333334,tr12-0646
-0.4351034435327274,0.6143012988885065,0.43916266988854535,0.9909879315020668,0.05492039507846548,0.027918588402419675,635.0,1.0494047424212338,68.33333333333333,tr12-0646
-0.4168497813698816,0.605367536937989,0.43250920320226777,0.9372463109643392,0.0584178106503721,0.02452215137214159,592.5,1.0222173183078704,68.33333333333333,tr12-0646
-0.7761895592272066,0.6289050903978588,0.421096538675082,1.0228383124491631,0.0649733000509882,0.02901290515906548,513.3333333333334,1.4050946496250654,65.0,tr12-0646
-0.7776295070718555,0.7067497550029803,0.4193714382519983,1.0764742188933762,0.10528759411956964,0.061210382406155076,498.33333333333337,1.4843792620748355,65.0,tr12-0646
-0.7465104528914661,0.6456251198310025,0.40961249321137133,1.0565638069279888,0.07512807834200308,0.02818477650076728,360.0,1.392135572722469,67.5,tr12-0646
-1.1248482463951106,0.670153818509009,0.4109808933380017,0.9858003097931289,0.0722444996321004,0.03448110255737953,645.0,1.7950020649041196,63.33333333333334,tr12-0646
-0.7850918832972256,0.6798391711365346,0.4233953749318803,1.04870665869691,0.08617008340781958,0.0538056766253203,501.6666666666666,1.46493105443376,65.0,tr12-0646
-0.7850327750613256,0.6496035910528877,0.42372806952658015,1.0592105208488969,0.06780779897436613,0.036024280498563134,355.0,1.4346363661142134,65.0,tr12-0646
-0.423765584382867,0.6469908922656319,0.42657579412320507,0.9978566647248917,0.0984177026785084,0.0392785572774966,625.0,1.0707564766484992,68.33333333333333,tr12-0646
-0.7361529938222471,0.6601245724983591,0.4125412291851683,1.0344052021858834,0.08057076575436445,0.035054713007895894,360.0,1.3962775663206062,65.0,tr12-0646
-1.1340021396367477,0.7383018608278941,0.39911995339945866,1.0263032778537735,0.09581272092225686,0.05373847506599267,572.5,1.8723040004646418,61.66666666666666,tr12-0646
-1.1407276264832171,0.7420967590930218,0.4041688800657917,1.008811849640888,0.09890901799844833,0.06380551269906336,567.5,1.8828243855762388,61.66666666666666,tr12-0646
-0.76117798550715,0.6679267997228433,0.4210042185622189,1.0780118417058104,0.06512628989038438,0.03577925126446388,360.0,1.4291047852299934,65.0,tr12-0646
-0.3816488902128349,0.5683578153010562,0.38807167855826197,0.8212346042569483,0.09009807422963488,0.06654350690280741,471.6666666666666,0.9500067055138912,71.25,tr12-0646
-1.133271786161915,0.6672739667567783,0.4080239076052398,0.9677823517573798,0.07663262720975088,0.034415644745415884,642.5,1.8005457529186937,61.66666666666666,tr12-0646
-0.4174642597156453,0.6293117993599231,0.43625177108488056,0.9964417894966998,0.056960304485554974,0.03361461353602807,602.5,1.0467760590755684,70.0,tr12-0646
-0.7813476111081631,0.6563099361580841,0.4218144661457257,1.055700863151169,0.08048804685317029,0.04121545364854616,530.0,1.4376575472662472,65.0,tr12-0646
-0.7716596253898093,0.6555321609901421,0.4229985783774568,1.0585263262030682,0.07591756002232898,0.03703443930166827,508.33333333333337,1.4271917863799513,66.25,tr12-0646
-0.4344634352717932,0.6234910210756909,0.4409479050824085,0.9734305355430108,0.06334080527059255,0.035117397057898764,615.0,1.057954456347484,70.0,tr12-0646
-0.7931654488011044,0.6408085624947343,0.4214971676759851,1.029024840686818,0.08060944700808585,0.034978363355574256,548.3333333333334,1.4339740112958386,66.25,tr12-0646
-0.4060214361019712,0.6203632984682366,0.4367697737357852,0.9793903728802574,0.05231862952448015,0.032713141693560266,582.5,1.0263847345702075,70.0,tr12-0646
-0.4236868707551314,0.6581169310029558,0.44591854944405496,1.0217439826320525,0.07293853818876236,0.04665423991275202,567.5,1.0818038017580869,68.33333333333333,tr12-0646
-0.7716511295279856,0.680392270108596,0.41697712823594935,1.05944620874324,0.09157230503260128,0.04391628561879202,518.3333333333334,1.4520433996365818,66.25,tr12-0646
-0.42381482127485937,0.6234698426169581,0.4264316898182716,0.9760401166652184,0.0767737259150411,0.036307896439077496,665.0,1.0472846638918174,68.33333333333333,tr12-0646
-1.1137385428579492,0.6515150043832298,0.4035995157216757,0.9875994483943868,0.0664262631727157,0.02257280121278317,627.5,1.765253547241179,63.33333333333334,tr12-0646
-0.4472455449440293,0.6238032154835759,0.4338780422832906,0.9744370190244134,0.06945880701341912,0.04245767389528123,642.5,1.0710487604276049,68.33333333333333,tr12-0646
-0.7771105355099979,0.6690719787770838,0.4278158355719948,1.0225389710872173,0.07947461020220631,0.05280067334975583,355.0,1.4461825142870817,67.5,tr12-0646
-1.1511413826511148,0.7038226240054221,0.41308104757244296,0.9771858720448292,0.08824209027647822,0.05677699185882805,590.0,1.8549640066565367,61.66666666666666,tr12-0646
-0.4342508514785681,0.6054767258208588,0.4371525843787096,0.956573142491106,0.04909978668133975,0.0323657553487122,627.5,1.0397275772994268,68.33333333333333,tr12-0646
-0.1513021186612673,0.4111399682703691,0.23283010225896006,0.012035776315160613,0.000368421510297818,0.001339563352120825,256.42857142857144,0.5624420869316364,75.0,tr12-0646
-0.7766424524010345,0.608014892659497,0.4109008761829973,1.0386163054453983,0.05377430400619765,0.024720508616333545,360.0,1.3846573450605315,65.0,tr12-0646
-0.7863759596480377,0.7158024588855134,0.4311042166451461,1.0506059110040264,0.10187503966836264,0.06564610444917493,355.0,1.5021784185335512,67.5,tr12-0646
-0.408280585135026,0.6701092989578242,0.4211987474720122,1.0186007519929463,0.11738536204974988,0.05045396932218794,590.0,1.0783898840928503,68.33333333333333,tr12-0646
-0.7514725659901167,0.6632904384294022,0.412466835541338,1.0473629361118022,0.08401826217939892,0.0370785173004037,530.0,1.414763004419519,65.0,tr12-0646
-1.101445330489622,0.6993196262621915,0.3949114333280072,0.9980859616008428,0.09761669330611153,0.031013385405670568,605.0,1.8007649567518138,65.0,tr12-0646
-0.7577905686343311,0.6312605136596723,0.4121489542192914,1.0543298269106138,0.067380037939513,0.0245240129631635,538.3333333333334,1.3890510822940034,66.25,tr12-0646
-0.4357114079165191,0.6329615478509282,0.4430835590950371,0.9959930321405336,0.06015962326763531,0.04018004243189311,612.5,1.0686729557674477,68.33333333333333,tr12-0646
-0.4282973150606193,0.6208420773206861,0.4411145352213556,0.9677426626683172,0.05867065105328114,0.03444711226956921,640.0,1.0491393923813053,70.0,tr12-0646
-0.7640853393659441,0.6264952471104229,0.4185834186225911,1.0527240439394647,0.05341854146058162,0.029137066572106775,525.0,1.3905805864763667,65.0,tr12-0646
-0.7589522373541703,0.6102815808078976,0.413439062928252,1.0523047090959805,0.05226507535739827,0.016467057343881597,360.0,1.3692338181620678,65.0,tr12-0646
-0.8013255718279451,0.6131634881664667,0.4235608530531031,1.0032085158088595,0.060390693714556576,0.029485137636832283,355.0,1.4144890599944118,65.0,tr12-0646
-1.0996796795911037,0.6913067912767784,0.399492535515887,0.9887531124628588,0.07919865570441753,0.03405523086096244,615.0,1.7909864708678824,61.66666666666666,tr12-0646
-0.7769908875595221,0.6402210268178101,0.42027148054408137,1.0434034375033536,0.07254281673295437,0.03320454852544357,561.6666666666666,1.4172119143773316,65.0,tr12-0646
-0.1446411008578718,0.4111051541057089,0.23194180846880985,0.0027930959097669378,0.0021490640096604573,0.0017075816835936046,228.57142857142856,0.5557462549635805,75.0,tr12-0646
-0.7806223049558932,0.6345258780023364,0.4242396956915114,1.0160659900855022,0.06783530599354888,0.03042408072718838,355.0,1.4151481829582298,67.5,tr12-0646
-0.7776874395962516,0.683443668662361,0.4247414461187308,1.0540401043261802,0.08996919270497583,0.0501227681623134,355.0,1.4611311082586125,67.5,tr12-0646
-1.1286495383141426,0.7038522729738347,0.4100834497001356,0.9717081039316632,0.08142571362917361,0.0498746671321433,622.5,1.8325018112879767,65.0,tr12-0646
-0.7884651501116375,0.6173171926920273,0.4258527015554928,0.9980706174087144,0.05652958173423789,0.03447101860235269,355.0,1.4057823428036649,65.0,tr12-0646
-1.13796802267296,0.6970663673489451,0.4096843702076271,0.9905968494527672,0.072650484932387,0.05226853023477701,615.0,1.835034390021905,61.66666666666666,tr12-0646
-1.1256066233475142,0.6474870544118134,0.4142408096639793,0.9695227151073972,0.059859667489897586,0.02700171997070741,625.0,1.7730936777593274,63.33333333333334,tr12-0646
-0.1594919695239592,0.3997416313683136,0.22146934941022325,0.02382132356672751,0.017269116390802166,0.016065528529780642,225.625,0.5592336008922729,75.0,tr12-0646
-0.7639661638484574,0.6208901494576808,0.4235112173372796,0.9778428412425768,0.06630314022325495,0.025673188602075764,355.0,1.3848563133061382,65.0,tr12-0646
-0.16184748733859172,0.3984974421551255,0.21884630555041126,0.02428563280019676,0.01799102659212506,0.015847137028777238,200.7142857142857,0.5603449294937173,75.0,tr12-0646
-0.7851753625978248,0.6758780541496459,0.4236769736479749,1.053757590947713,0.08519789500044682,0.04831471463932235,526.6666666666666,1.4610534167474711,65.0,tr12-0646
-0.5265175844983873,0.611996769197591,0.4242204904153633,0.9029325995348444,0.056622587817196465,0.026021235299492282,600.0,1.1385143536959783,70.0,tr12-0646
-1.1412105813101192,0.6582009609143098,0.4080464466860319,1.011488379849345,0.058546711929533375,0.0343462421871142,622.5,1.7994115422244288,61.66666666666666,tr12-0646
-0.7875795663253388,0.6536280668074601,0.4234800117574479,1.0532146323061575,0.08307810404393443,0.03636513415290008,541.6666666666666,1.4412076331327992,65.0,tr12-0646
-0.7854087591186883,0.6260137105560966,0.4269073026482457,1.0075434003663335,0.05875206132895783,0.034678279910825976,355.0,1.4114224696747848,67.5,tr12-0646
-0.7940102910915185,0.6714475459787178,0.4224370794123933,1.0482351935842722,0.094786269596272,0.051771865900057765,511.6666666666666,1.4654578370702362,65.0,tr12-0646
-1.1106009353066393,0.6699156980857989,0.4086553025200984,0.9518570570811894,0.07465005843202853,0.0332088805357646,647.5,1.7805166333924378,63.33333333333334,tr12-0646
-0.14730918237310053,0.4116060749282828,0.2328915062385447,0.00926913552702333,0.00040237865113041787,0.000975792945819097,256.42857142857144,0.5589152573013834,75.0,tr12-0646
-0.7667921381579865,0.6664563043604453,0.4123924418975076,1.059940912970831,0.08721492447317193,0.038997293720183235,360.0,1.4332484425184318,65.0,tr12-0646
-0.4445034969599113,0.6021161834401437,0.43538893794808814,0.9620787582212456,0.051724685998557736,0.029315344313309812,645.0,1.0466196804000552,68.33333333333333,tr12-0646
-1.1161927242736558,0.68143217252716,0.4102876102649659,1.0133166418852186,0.05650143902968089,0.032910909044832924,605.0,1.7976248968008155,63.33333333333334,tr12-0646
-1.1091921968428464,0.6633793149164611,0.4079958316749978,0.9358488708976054,0.08087889690813635,0.0303457211673054,600.0,1.7725715117593073,61.66666666666666,tr12-0646
-1.1370881946624871,0.6513711266220175,0.4128552904647071,0.9524561368414204,0.06670634582192958,0.03361596058097383,635.0,1.7884593212845046,61.66666666666666,tr12-0646
-0.4523413627140414,0.6290416733099721,0.4342470723369652,0.9527063500304216,0.08522975868727606,0.04202152075556253,600.0,1.081383036024013,68.33333333333333,tr12-0646
-0.7679314112675913,0.6416761059243937,0.4135389285623596,1.055963669491071,0.07699930703942963,0.030975985127117682,535.0,1.4096075171919853,65.0,tr12-0646
-0.7850053257742635,0.6684536368230019,0.4194334822988672,1.0541459785504197,0.08843206283550402,0.03961162543919089,355.0,1.4534589625972656,67.5,tr12-0646
-0.7583876493890702,0.6473252252503477,0.4183904624383398,1.0255176688711902,0.07556759759789054,0.03333830118242707,551.6666666666666,1.405712874639418,66.25,tr12-0646
-0.41302970462413335,0.6559214122568324,0.4267999583710251,0.9889302794415616,0.10693676303479463,0.0462129252818408,602.5,1.0689511168809658,70.0,tr12-0646
-0.784712154566418,0.6486359908742043,0.4247670073562521,1.032924711977475,0.07380069172981854,0.041585112964245344,546.6666666666666,1.4333481454406225,65.0,tr12-0646
-0.43716689017436544,0.6713718132732455,0.4427883754802811,0.9898194120965044,0.10424576895010902,0.0560890347715486,597.5,1.1085387034476109,70.0,tr12-0646
-0.4359628253016617,0.6512275851888112,0.44010262370880615,0.9963646399890992,0.08513318548047671,0.04509110349675786,612.5,1.0871904104904728,68.33333333333333,tr12-0646
-0.1564752386081422,0.410938080950051,0.2330673108620457,0.013700045898278085,0.0002559911105545989,0.0016782198827983714,266.6666666666667,0.5674133195581932,75.0,tr12-0646
-0.4519988453796702,0.6644734233598765,0.43838405324787183,0.974373643697656,0.10593475501481896,0.056365723084716525,592.5,1.1164722687395467,68.33333333333333,tr12-0646
-0.7841557988439521,0.6839382287486538,0.42556424439527296,1.0469053250611702,0.09286619218909203,0.05700435896581616,518.3333333333334,1.4680940275926062,66.25,tr12-0646
-1.1403559963145244,0.7049779764681302,0.4033652368982477,0.9783366989770678,0.09547590891729657,0.04336374826807316,592.5,1.8453339727826543,61.66666666666666,tr12-0646
-0.7737769725775938,0.6918646293041784,0.4260542176036825,1.0644716482943442,0.0887862509413674,0.0531063594639813,516.6666666666666,1.4656416018817722,66.25,tr12-0646
-0.7844276080625291,0.6804803461699753,0.4226557822585647,1.0605803266406435,0.09112802439434592,0.046223744894409086,355.0,1.4649079542325043,65.0,tr12-0646
,,,,,,,,,tr12-0476
-0.4263138422357161,0.2385690264145621,0.1260023356504672,0.3521209918757967,0.04622956602392552,0.019002316874949108,450.0,0.6648828686502781,58.0,tr12-0476
-0.407188561851791,0.22185739987786035,0.14280203318198328,0.4277195051251033,0.034523529539399064,0.034604350250808026,506.6666666666666,0.6290459617296513,56.25,tr12-0476
-0.03309163779828748,0.2212042252684637,0.1286052088920928,0.08208355424537887,0.03592606424426977,0.030375079107482512,466.25,0.2542958630667512,60.0,tr12-0476
0.03739090894828288,0.21441855799659856,0.13067421340732185,0.03337045485258508,0.036019607207278155,0.033887564008465015,406.6666666666666,0.1770276490483157,66.25,tr12-0476
0.03978162535717091,0.22320954804504733,0.13523263134914262,0.065259545499734,0.042514647365874784,0.022115814464284945,401.6666666666666,0.1834279226878764,58.75,tr12-0476
-0.15650254295291674,0.2150749609079103,0.13445976380066982,0.2743640546830307,0.028581859239833533,0.03654306983897841,395.0,0.3715775038608271,56.25,tr12-0476
0.07112115869880467,0.22520923896923625,0.13190475714931146,0.020074787131945302,0.03656169045381017,0.028475777985945618,445.0,0.15408808027043153,61.0,tr12-0476
-0.006306564213696853,0.2147668122333897,0.12427250541843365,0.12940249440474108,0.02189212510496336,0.035817904994656764,515.0,0.22107337644708647,70.0,tr12-0476
-0.21069544537707666,0.2219052750249425,0.14055817155092026,0.4372116448581357,0.03551640863425317,0.02103727360076988,400.0,0.4326007204020191,57.5,tr12-0476
0.054871720503082116,0.2310486601867643,0.13670962583287072,0.023248535962738168,0.04422180974035221,0.04152820648302461,406.6666666666666,0.17617693968368214,63.75,tr12-0476
0.06474248296555322,0.21524160758920727,0.14308977646495258,0.034230388862309884,0.028604709052317094,0.02542368517972327,408.33333333333337,0.15049912462365406,62.5,tr12-0476
-0.26376527674763656,0.24063824855140695,0.1426916574597424,0.4902680616189515,0.039648327951622375,0.029905063646459243,411.6666666666666,0.5044035252990435,56.25,tr12-0476
-0.1820708085380715,0.2505505748160881,0.1456249934035812,0.2755454841477841,0.04066525859773834,0.027191624519337126,400.0,0.4326213833541596,60.0,tr12-0476
-0.0780415067117404,0.2459402142180239,0.10469722704042027,0.3103679586610115,0.0385102100452625,0.04213822524795959,461.25,0.3239817209297643,60.0,tr12-0476
0.011901551697513241,0.2619656578274273,0.10727405483148024,0.07986545528162806,0.030768055143882738,0.03937415588423749,520.0,0.2500641061299141,58.75,tr12-0476
-0.02114257486250282,0.2279832827073941,0.12983661165976096,0.08753520456161043,0.034048755531893016,0.03611082515714634,446.25,0.2491258575698969,58.0,tr12-0476
0.01913452492727073,0.2354785456555953,0.1406029894759373,0.0796112985859699,0.04307968736829328,0.02071644919420886,385.0,0.2163440207283246,63.75,tr12-0476
-0.26540437361275504,0.2165370489798732,0.14172066684657414,0.28748464884836433,0.022998324882081318,0.031309345912380354,395.0,0.4819414225926281,58.75,tr12-0476
-0.1946406365406528,0.2649940999396796,0.14043560687378953,0.2926626613362129,0.04606639150051817,0.044143853983120505,451.25,0.4596347364803324,58.0,tr12-0476
-0.06774934149341715,1.585669626222158,0.3928882645415994,0.0,0.0,0.0,,1.6534189677155753,55.0,tr12-0476
-0.16470407402419038,0.43489233569970825,0.2251061158710456,0.001094575876934862,0.0011271008402087565,0.001202147316429747,200.0,0.5995964097238987,75.0,tr12-0476
-0.1603732824057834,0.43942579901740936,0.22959177465314,0.0011599650516331472,0.0011535009682893116,0.0009462280140946953,200.0,0.5997990814231927,75.0,tr12-0476
-0.15847050845427976,0.4412817270631104,0.23128650937587025,0.00030399602434319544,0.00012425927449771223,0.00022870404822769043,200.0,0.5997522355173901,75.0,tr12-0476
-0.0161053775918762,0.4524997054331383,-0.010749818660923768,0.2532155119950484,0.03619265879438442,0.766103893705996,219.28571428571428,0.4686050830250146,70.625,tr12-0476
0.039845392643045534,0.2561097750475866,0.1234537618873291,0.0,0.0,0.0,,0.21626438240454104,65.0,tr12-0476
-0.03088811301870671,1.4236819155125509,0.5777160023705655,0.0,0.0,0.0,,1.4545700285312575,50.0,tr12-0476
-0.31300347592172106,0.2729603843462221,0.2049765029799276,0.4567910633875126,0.035456714314799236,0.05489419041697849,383.33333333333337,0.5859638602679432,53.75,tr12-0476
0.2878375385073376,0.5169782402850769,0.3777174224576739,0.0,0.0,0.0,,0.2291407017777393,60.0,tr12-0476
-0.07568947592403634,0.2243266904305994,0.14022724118780674,0.1592636729423895,0.03366209834266563,0.0313578841705467,390.0,0.3000161663546357,67.5,tr12-0476
-0.12856128661036353,0.4676155154546551,0.25473319247607823,0.05337891125304412,0.050388144292111824,0.04740550817466083,200.0,0.5961768020650186,75.0,tr12-0476
-0.03088811301870671,1.4236819155125509,0.5777160023705655,0.0,0.0,0.0,,1.4545700285312575,50.0,tr12-0476
-0.2605673474424388,0.2305704171681177,0.1438615566902292,0.2661276305705669,0.032810027793326986,0.024318083919488257,400.0,0.4911377646105564,50.0,tr12-0476
0.06706272764572119,0.21614428364374697,0.1354899018001024,0.026439922947265,0.037779688473006674,0.03836092148503081,406.6666666666666,0.1490815559980258,63.75,tr12-0476
-0.4241308733522553,0.219206039644461,0.13582646830097764,0.4095441055329896,0.036776282820521436,0.043044097498225437,406.6666666666666,0.6433369129967164,56.25,tr12-0476
0.03140659729191144,0.4563082479415188,-0.0913012012492056,0.2765162560687732,0.04109139713572029,0.8698272625560419,227.0,0.4249016506496073,69.16666666666667,tr12-0476
-0.06774934149341715,1.585669626222158,0.3928882645415994,0.0,0.0,0.0,,1.6534189677155753,55.0,tr12-0476
-0.19099594833430106,0.21650372939305476,0.12931338803816644,0.3894937424028055,0.02903003498212238,0.01980690396421584,406.6666666666666,0.4074996777273558,58.75,tr12-0476
0.06386868718844102,0.2320972843153603,0.1428286107060301,0.027498675925913537,0.03960875175541161,0.03910807398056308,470.0,0.1682285971269193,63.0,tr12-0476
-0.30485210810579977,0.2413143870715779,0.11557131797437653,0.3262660231798358,0.05033410526062102,0.008061020284574963,400.0,0.5461664951773777,61.25,tr12-0476
-0.16431870021473105,0.43530990008751774,0.22560494218973165,0.0012548170457493,0.0012466811574539144,0.0014018342804222185,200.0,0.5996286003022487,75.0,tr12-0476
-0.00788338152881304,0.2207981960356676,0.12781064623265778,0.12815518289877045,0.02892919055005081,0.03866646763108544,396.6666666666666,0.2286815775644806,63.75,tr12-0476
-0.15881296679047258,0.44098353693859904,0.23090909469751514,0.0005755578539938223,0.00044773964846727733,0.0004900360039043378,200.0,0.5997965037290717,75.0,tr12-0476
-0.020536336605764715,0.27194939659662243,0.11559523752685955,0.10123103387428264,0.023528739826471304,0.036810570932514615,383.33333333333337,0.29248573320238713,58.75,tr12-0476
-0.12780820072374416,0.20802128770632244,0.13352207498089172,0.2863729048038128,0.02312768803563929,0.023973014458214384,395.0,0.3358294884300665,60.0,tr12-0476
0.011210113811562663,0.2478965405696621,0.11355701423510732,0.11791843087414515,0.02237508936043572,0.03783470417794104,543.3333333333334,0.2366864267580995,66.25,tr12-0476
-0.03194040317301965,0.4512565036061546,0.01615600528005745,0.24289884100416725,0.03430346283330298,0.7262876603103549,216.875,0.4831969067791742,71.1111111111111,tr12-0476
-0.1638489163425917,0.43577021345099226,0.2261241604831237,0.0013113044387629766,0.0013990250192553633,0.001487218996275361,200.0,0.599619129793584,75.0,tr12-0476
-0.15858690661997488,0.4411019705815365,0.231154990904226,0.00020581360036691,0.00021459252508302732,0.000284632623117228,200.0,0.5996888772015114,75.0,tr12-0476
-0.03088811301870671,1.4236819155125509,0.5777160023705655,0.0,0.0,0.0,,1.4545700285312575,50.0,tr12-0476
0.006665785435443709,0.2169525924733728,0.1243097539686561,0.13408799450253353,0.03240447420207625,0.04172631259588981,505.0,0.21028680703792907,63.75,tr12-0476
0.07059466405155758,0.21165702131056546,0.1329067083415056,0.029249242984604188,0.03196410186168446,0.03563893618442791,536.6666666666666,0.1410623572590079,62.5,tr12-0476
0.0704999471765061,0.2389562499422608,0.07609510356860408,0.04348950036181037,0.029721795054097458,0.06300333424212429,448.75,0.16845630276575468,54.0,tr12-0476
-0.1627972859471303,0.4362827577527241,0.22600365217561824,0.0054346180938307535,0.00426358579363082,0.0035431696294750663,200.0,0.5990800436998547,75.0,tr12-0476
-0.4218465342452262,0.22813018985820355,0.1404214055779816,0.4790334943760565,0.03168413903867113,0.02715752182076648,533.3333333333334,0.6499767241034298,55.0,tr12-0476
-0.3428519977928376,0.2213253186112981,0.12357903322826468,0.4191051701523709,0.03983329919471319,0.022017795257982982,446.25,0.5641773164041356,63.0,tr12-0476
0.020925657341839887,0.26489259700442763,0.11439517197641295,0.1232439372159842,0.03914408275964281,0.03910698612803666,413.33333333333337,0.2439669396625877,60.0,tr12-0476
0.1265409336581037,0.4639876126837501,-0.2524429416184753,0.2958719777934052,0.04853694630925914,1.028104646633781,245.0,0.33744667902564635,66.25,tr12-0476
-0.4600102803865694,0.2320003898567029,0.13603774180074465,0.39688249627243577,0.036946180537774265,0.033778564158141434,458.75,0.6920106702432722,58.0,tr12-0476
-0.052365083529766335,0.2371500930572091,0.14935486006094348,0.15974712244066866,0.038676399184299416,0.025489565879390226,442.5,0.2895151765869754,66.0,tr12-0476
0.06395518089879619,0.2198900298619637,0.13423136438265676,0.03074384599051273,0.03487092217130805,0.03927134567802218,531.6666666666666,0.15593484896316753,62.5,tr12-0476
0.013278639929164787,0.2237120376544269,0.13203832417446773,0.12218971041706213,0.026523203890589386,0.03560294395652258,458.75,0.2104333977252621,66.0,tr12-0476
-0.2212469040075241,0.2347856314055209,0.1398924943783108,0.42948738671627457,0.0393676754125286,0.030230085818942317,411.6666666666666,0.456032535413045,53.75,tr12-0476
-0.2949427652854194,0.40392896509678505,0.2005142927700008,0.705362085211229,0.07995443470572636,0.15353279854242755,935.0,0.6988717303822045,48.33333333333334,tr12-0476
-0.09154444135845248,0.2770739597085501,0.15120268724264618,0.10635935169451297,0.055083173067828936,0.01995268882498261,460.0,0.3686184010670026,55.0,tr12-0476
0.027863793031266643,0.21199338881410856,0.1283059483580251,0.035410924252831814,0.032579985649906,0.030677814669841336,467.5,0.18412959578284188,67.0,tr12-0476
0.07677917642413913,0.2367981427288367,0.09821513257400943,0.02373009841850786,0.037893376619084033,0.04482688691457788,405.0,0.16001896630469753,66.25,tr12-0476
0.06599658424835299,0.21663831387690133,0.12410554663698832,0.01929870543585853,0.03610599294242178,0.02663548369756824,390.0,0.1506417296285483,63.75,tr12-0476
0.003310671466228026,0.223592066033781,0.14066013868472846,0.09604723833793163,0.04113062712409455,0.02054162655864087,385.0,0.22028139456755294,58.75,tr12-0476
-0.14457731952859618,0.2678232522744487,0.17008266294602886,0.04377642056340001,0.03394090257633322,0.04264979258586876,385.0,0.4124005718030449,58.75,tr12-0476
0.08000491395094993,0.2253473254374312,0.1210338450658214,0.008468582095338453,0.04001905018681642,0.0384896008178896,396.6666666666666,0.14534241148648125,57.5,tr12-0476
-0.1386542655247564,0.2561188833818909,0.09637399578536957,0.32649557049679045,0.023141534713623426,0.021147131396253138,411.6666666666666,0.3947731489066473,50.0,tr12-0476
-0.16296473317055962,0.4361342769846924,0.2259274854749707,0.005180146098028613,0.00406924640246368,0.003369103473848623,200.0,0.599099010155252,75.0,tr12-0476
-0.035776994853678364,0.21524560951174496,0.1340627644492018,0.11979515405206295,0.021306721939459896,0.027022496315690696,400.0,0.2510226043654233,70.0,tr12-0476
-0.17456017104364496,0.22397921598318116,0.13640501889420625,0.3953304142335397,0.041315439620433665,0.027923760704916083,466.25,0.3985393870268261,56.0,tr12-0476
0.0042430759818958995,0.4540953781526457,-0.04526753947616199,0.264509634877191,0.0384274507628116,0.8131595272055694,222.5,0.4498523021707498,70.0,tr12-0476
-0.03088811301870671,1.4236819155125509,0.5777160023705655,0.0,0.0,0.0,,1.4545700285312575,50.0,tr12-0476
-0.26497308078507603,0.23638924897252234,0.14419771949245933,0.4895389631611717,0.043509043116864064,0.028946936907521238,536.6666666666666,0.5013623297575984,60.0,tr12-0476
-0.04352635137778833,0.2573768417258051,0.13887001833664558,0.07416354451382869,0.039850145573942536,0.04253347114414793,396.6666666666666,0.3009031931035935,62.5,tr12-0476
-0.06774934149341715,1.585669626222158,0.3928882645415994,0.0,0.0,0.0,,1.6534189677155753,55.0,tr12-0476
-0.03088811301870671,1.4236819155125509,0.5777160023705655,0.0,0.0,0.0,,1.4545700285312575,50.0,tr12-0476
0.03773175495579889,0.22951356035670495,0.1456798438229301,0.03562463143386331,0.03831230982698742,0.029959243783624436,413.33333333333337,0.19178180540090609,66.25,tr12-0476
-0.041253583818481016,0.23027060169297536,0.14115910370698845,0.08993914905512397,0.034675015612823316,0.01911296453627635,406.6666666666666,0.2715241855114564,58.75,tr12-0476
-0.42077828574416665,0.22925852155215945,0.1232245581719041,0.4349699964264115,0.04084955460485417,0.02460387921040426,400.0,0.6500368072963261,61.25,tr12-0476
-0.03088811301870671,1.4236819155125509,0.5777160023705655,0.0,0.0,0.0,,1.4545700285312575,50.0,tr12-0476
0.2878375385073376,0.5169782402850769,0.3777174224576739,0.0,0.0,0.0,,0.2291407017777393,60.0,tr12-0476
-0.03088811301870671,1.4236819155125509,0.5777160023705655,0.0,0.0,0.0,,1.4545700285312575,50.0,tr12-0476
0.4374364926120918,0.6329672138707878,0.4412476243175701,0.0,0.0,0.0,,0.19553072125869606,65.0,tr12-0476
-0.12640567674880804,0.24725646321176944,0.14661982460949918,0.2906251513747755,0.043262215064198584,0.02620797333507365,531.6666666666666,0.3736621399605775,56.25,tr12-0476
0.2878375385073376,0.5169782402850769,0.3777174224576739,0.0,0.0,0.0,,0.2291407017777393,60.0,tr12-0476
0.41164326757549,0.4873092289133186,0.3899601035552254,0.1118649640420365,0.060198483469943775,0.14486062911397296,220.0,0.0756659613378286,62.5,tr12-0476
0.005780227654753431,0.2181692502395251,0.13321037977477695,0.07716105604602515,0.031105803721915525,0.03966204811205541,383.33333333333337,0.2123890225847717,58.75,tr12-0476
0.02710108941751528,0.21817816355434935,0.13459434502566126,0.039553866581379785,0.033698102887959366,0.031284033114333754,531.6666666666666,0.1910770741368341,67.5,tr12-0476
-0.3650680141632242,0.2300681955751844,0.1302577754941365,0.3690951555738269,0.04806397136787628,0.018995162988364383,405.0,0.5951362097384085,56.25,tr12-0476
-0.03088811301870671,1.4236819155125509,0.5777160023705655,0.0,0.0,0.0,,1.4545700285312575,50.0,tr12-0476
0.4374364926120918,0.6329672138707878,0.4412476243175701,0.0,0.0,0.0,,0.19553072125869606,65.0,tr12-0476
-0.06774934149341715,1.585669626222158,0.3928882645415994,0.0,0.0,0.0,,1.6534189677155753,55.0,tr12-0476
0.01988303725615757,0.2327845126186347,0.14358594759711912,0.0920794810225148,0.041126476714624986,0.01928232788091277,442.5,0.21290147536247708,60.0,tr12-0476
-0.14006962009398,0.2351448857623357,0.11018612632270837,0.32291880063952016,0.038335791699668234,0.04390886547572823,408.33333333333337,0.3752145058563157,57.5,tr12-0476
0.22155773615200505,0.4717175974599448,-0.4136085298846898,0.28391465613193473,0.05387116932221787,1.1425562707697083,267.5,0.2501598613079397,63.33333333333334,tr12-0476
,,,,,,,,,tr12-0476
-0.06774934149341715,1.585669626222158,0.3928882645415994,0.0,0.0,0.0,,1.6534189677155753,55.0,tr12-0476
-0.03088811301870671,1.4236819155125509,0.5777160023705655,0.0,0.0,0.0,,1.4545700285312575,50.0,tr12-0476
,,,,,,,,,tr12-0476
-0.1628523128380291,0.4368549848165772,0.22720602406953996,0.001281405347139268,0.0015619594294500585,0.0014918550403829707,200.0,0.5997072976546063,75.0,tr12-0476
-0.06774934149341715,1.585669626222158,0.3928882645415994,0.0,0.0,0.0,,1.6534189677155753,55.0,tr12-0476
0.014313195675222632,0.21888969765026264,0.13072190238331866,0.07492684565822172,0.042202186514714544,0.03165282263881008,470.0,0.20457650197504001,60.0,tr12-0476
-0.052704652370412164,0.2783401223838297,0.1783682596125473,0.16408676568942507,0.04536710819784842,0.05167506855077651,545.0,0.33104477475424177,57.5,tr12-0476
0.06885243734213052,0.22449027692498646,0.1303783705975074,0.021863459584887283,0.04084558701922318,0.03165340637835745,503.33333333333337,0.155637839582856,57.5,tr12-0476
0.2878375385073376,0.5169782402850769,0.3777174224576739,0.0,0.0,0.0,,0.2291407017777393,60.0,tr12-0476
-0.056826266524696877,0.26592860026038384,0.1289817374131013,0.1100013125422578,0.051461384339150686,0.042188792083815284,401.6666666666666,0.32275486678508075,57.5,tr12-0476
-0.20162910313210328,0.2263245431138425,0.14396363769896353,0.2893701657401948,0.030372276062896574,0.029025784318034837,442.5,0.4279536462459458,63.0,tr12-0476
-0.03088811301870671,1.4236819155125509,0.5777160023705655,0.0,0.0,0.0,,1.4545700285312575,50.0,tr12-0476
-0.06774934149341715,1.585669626222158,0.3928882645415994,0.0,0.0,0.0,,1.6534189677155753,55.0,tr12-0476
-0.15865633037991236,0.4411076646503668,0.2310201514670896,0.0004946859551600854,0.00033361807049782713,0.0003961467770594862,200.0,0.5997639950302791,75.0,tr12-0476
-0.12661435171901614,0.23696507857946245,0.10594968530312966,0.32956597343134497,0.038092388327721285,0.04702865376885222,521.6666666666666,0.36357943029847856,62.5,tr12-0476
0.05758905600927702,0.21237545985912884,0.12924472583250252,0.03030276286853253,0.03462166980045823,0.03651379368416418,467.5,0.15478640384985182,61.0,tr12-0476
0.04889014300636915,0.21743174437556345,0.13227214896846887,0.061166098932879685,0.023755732999429915,0.0248041751942171,521.6666666666666,0.16854160136919433,67.5,tr12-0476
-0.037730328285659205,0.22444359470837907,0.13221679063561806,0.07541009570128067,0.035469687911023326,0.029361715614294688,406.6666666666666,0.26217392299403824,66.25,tr12-0476
0.0707855926205403,0.21712022267375014,0.12057464091939485,0.019933816727806385,0.03939492837689408,0.034438393845950065,450.0,0.1463346300532099,59.0,tr12-0476
-1.3616354164316993,0.4019012976078076,0.29723427756236176,0.01839435620129295,0.023243103702227475,0.01355881796258302,757.5,1.7635367140395068,50.0,tr12-0375
-1.339176826966852,0.3816440636807867,0.2770169983544716,0.006895993079301888,0.005464559407719172,0.017786120671048258,745.0,1.720820890647639,42.5,tr12-0375
-1.3720835760514751,0.3824487902230225,0.2794519942945269,0.017763435609346,0.01598918897660326,0.005117597785508449,757.5,1.7545323662744972,45.0,tr12-0375
-1.395356480656346,0.3923836805617431,0.2881543962889602,0.011289355119051936,0.002336735081595598,0.016321634799479484,800.0,1.7877401612180892,42.5,tr12-0375
-1.3443394567785298,0.42152967380165696,0.3105250301277953,0.0113827901345821,0.033626107257758435,0.027065434013165024,1140.0,1.7658691305801866,32.5,tr12-0375
-1.3998326723414225,0.3996374496202827,0.28902273356431074,0.002728710969191361,0.017490873291969966,0.00872644496451122,870.0,1.799470121961705,40.0,tr12-0375
-1.404825457678569,0.4060353671343399,0.3034237611471453,0.0060317920230414926,0.003638686152906495,0.0005506312134459236,820.0,1.810860824812909,40.0,tr12-0375
-1.391892473454164,0.39414731048246265,0.2930668953566146,0.02053402926565997,0.0005678578288139299,0.008351486987203895,845.0,1.7860397839366264,36.66666666666666,tr12-0375
-1.3833823999523536,0.3973529321822587,0.28988342364180103,0.019517528015584703,0.0021872801463694307,0.008489446612932355,880.0,1.7807353321346122,40.0,tr12-0375
-1.3711829743110884,0.4183210396985069,0.3162778845344625,0.012264865655406965,0.0052934357240808924,0.00649688208244803,915.0,1.7895040140095952,50.0,tr12-0375
