mean_q,mean_r,mean_s,mean_p,mean_t,stdev_q,stdev_r,stdev_s,mean_rr_interval,mean_rq_amplitude,mean_qrs_interval,mean_qs_distance,mean_qt_distance,mean_qrs_offset,mean_qrs_onset,person
-0.7582713733834534,0.4248804458165876,-0.11515577512765335,0.4248804458165876,0.4248804458165876,0.0,0.0,0.0,,1.183151819200041,48.0,35.0,12.0,-0.10652455427166968,0.14120378961513874,tr13-0638
-0.4698863146775537,0.3884826250777976,-0.34500083798130865,0.3884826250777976,0.3911624983385724,0.2636949986431357,0.03826519441525925,0.19968558377960746,511.6666666666666,0.8583689397553512,107.5,94.5,41.5,-0.30742017359021584,-0.266695978506993,tr13-0638
-0.7067300208098776,0.4655903759714593,-0.09116538877026474,0.4655903759714593,0.4655903759714593,0.05893482705219277,0.08928797380054768,0.014919352815289803,1165.0,1.1723203967813367,86.0,73.0,12.0,-0.0908373988485434,0.2385606788219216,tr13-0638
-0.737378236911159,0.4453465446856901,-0.13393050851815705,0.4453465446856901,0.4453465446856901,0.013976997001828141,0.0024475670123257627,0.0023945581117880976,1205.0,1.1827247815968491,48.0,33.0,12.0,-0.11952179216502296,0.18128091065378327,tr13-0638
-0.6974794575645155,0.4428794515250169,-0.13618427395712526,0.4428794515250169,0.4428794515250169,0.0,0.0,0.0,,1.1403589090895323,49.0,35.0,12.0,-0.114809537584392,0.2092740939149128,tr13-0638
-0.7846248612969711,0.3904041682135223,-0.10875149748337656,0.3904041682135223,0.3904041682135223,0.001610992645223186,0.01966144864713401,0.008485594232061265,1140.0,1.1750290295104937,49.0,36.0,13.0,-0.08926865755022385,0.20809166801577011,tr13-0638
-0.7245763763745512,0.4504338512867239,-0.14339547001819053,0.4504338512867239,0.4504338512867239,0.003120063011289309,0.011567863892374769,0.014529390258044313,1220.0,1.175010227661275,50.0,36.5,12.5,-0.1314602794664452,0.18330117934067786,tr13-0638
-0.7758052611123528,0.3495274087407758,-0.09911393429074608,0.3495274087407758,0.3495274087407758,0.0,0.0,0.0,,1.1253326698531287,51.0,38.0,12.0,-0.07208288518396737,0.1496318099038835,tr13-0638
-0.7434875080677529,0.4383171378109692,-0.13624991515927515,0.4383171378109692,0.4383171378109692,0.012480790921908735,0.015904068420112633,0.009850994671460405,1215.0,1.181804645878722,48.5,35.5,12.0,-0.11447043194543767,0.16211606796732358,tr13-0638
-0.7495921117753843,0.4020657260469767,-0.12214295601672455,0.4020657260469767,0.4020657260469767,0.041394670253922516,0.029651511360418294,0.01153267431639282,1165.0,1.1516578378223608,48.0,35.0,12.0,-0.09926830506040156,0.1776293231510067,tr13-0638
-0.32416427704697354,0.3546905402770623,-0.4593638178464926,0.3662396805974145,0.3546905402770623,0.1994733762004466,0.03506040724186981,0.08876471043173095,375.0,0.6788548173240361,147.33333333333334,133.66666666666666,48.33333333333334,-0.4724991054922049,-0.26366848574190804,tr13-0638
-0.4945390418848529,0.4608699325917118,-0.09697707407257904,0.4608699325917118,0.4608699325917118,0.16585763979880608,0.020341365599239297,0.020389311128426943,1210.0,0.9554089744765646,46.5,33.0,10.5,-0.07530667688625148,0.062334094024900616,tr13-0638
-0.7535765846498796,0.4302559623409432,-0.11887073767249552,0.4302559623409432,0.4302559623409432,0.008918405876388869,0.023490947371395232,0.012546694168078036,1130.0,1.1838325469908226,49.0,36.0,12.5,-0.08426012241684644,0.19249881227542484,tr13-0638
-0.7226814664802628,0.4603083834850225,-0.13908719907355832,0.4603083834850225,0.4603083834850225,0.014297844890357068,0.0225290306479502,0.019567876160175204,1060.0,1.1829898499652851,51.5,38.5,12.0,-0.1042738030772,0.16152178203241896,tr13-0638
-0.7099464569916786,0.528400364256991,-0.1467232785342289,0.528400364256991,0.528400364256991,0.0,0.0,0.0,,1.2383468212486697,59.0,45.0,12.0,-0.05757743940350625,0.2033774734671712,tr13-0638
-0.7607453327984149,0.4765326675028851,-0.11473690952983545,0.4765326675028851,0.4765326675028851,0.0,0.0,0.0,,1.2372780003013002,125.0,111.0,12.0,-0.11951298964988348,0.12446563135587195,tr13-0638
-0.4852214579496,0.39853725172711774,-0.3259690049887145,0.4014467872702425,0.39853725172711774,0.2413805889981072,0.013671815752816036,0.29636662455232154,526.6666666666666,0.8837587096767178,97.0,85.0,34.5,-0.2542719764948345,-0.008454972599857806,tr13-0638
-0.7999969455843841,0.433227661465146,-0.12055400684335454,0.433227661465146,0.433227661465146,0.06362140723923176,0.06689787142258244,0.032956071753317766,1020.0,1.23322460704953,88.0,74.5,13.0,-0.05772671196569524,0.18831498235482647,tr13-0638
-0.7503393279142663,0.4825816930774906,-0.13617243003557078,0.4825816930774906,0.4825816930774906,0.024341209521077208,0.00804629642047594,0.005813684004563488,1105.0,1.2329210209917572,51.5,38.5,13.0,-0.1156300996812258,0.1974641683104854,tr13-0638
-0.76158668103846,0.4546428927824361,-0.13534743560878545,0.4546428927824361,0.4546428927824361,0.019505254365900504,0.01080184693953537,0.008794091488320166,1080.0,1.216229573820896,49.5,36.5,12.5,-0.09660045930268392,0.20543350131399296,tr13-0638
-0.7836887264867447,0.4326231578515855,-0.12001267101328915,0.4326231578515855,0.4326231578515855,8.309965289216015e-05,0.013583127925083871,0.008756026657269288,1060.0,1.2163118843383305,46.5,35.0,12.0,-0.08396902910429373,0.18739755792416327,tr13-0638
-0.7828148537114962,0.5125367422408725,-0.11850980615520745,0.5125367422408725,0.5125367422408725,0.0,0.0,0.0,,1.2953515959523687,45.0,32.0,12.0,-0.09215156087650574,0.15693816241542055,tr13-0638
-0.4180903016734418,0.4617717931877288,-0.36081886239720096,0.4617717931877288,0.4617717931877288,0.3462534282118169,0.012237983142770359,0.23189975983124556,750.0,0.8798620948611706,60.0,46.5,26.5,-0.2847565537546014,0.0721879515666713,tr13-0638
-0.521322301705115,1.2216108700242092,-0.8582753316718439,1.3701932336931515,1.2216108700242092,0.3171706675445682,0.14858236366894229,0.01978236242216075,250.0,1.7429331717293242,77.5,63.5,25.0,-0.5738689845497336,-0.4009374252458165,tr13-0638
-0.5660619735663717,0.5581395682989934,-0.5495153117327534,0.614581417145561,0.5822759800055195,0.06231858329786653,0.09537677920544048,0.06895194694636222,257.14285714285717,1.1242015418653653,118.375,104.625,84.75,-0.13775654598768494,-0.16781506922317213,tr13-0638
-0.5184746807673576,0.5147488863667633,-0.5184746807673576,0.5232541447232171,0.518998345165555,0.005955921021925806,0.009518672115925431,0.005955921021925806,200.0,1.0332235671341208,93.8,80.0,76.0,-0.08528788719499866,-0.10661902422174734,tr13-0638
-0.5144563052613034,0.5142727992264094,-0.5144563052613033,0.5148090254340928,0.5144720679657925,0.00044698492480235,0.000581136648192197,0.00044698492480235,200.0,1.0287291044877127,93.8,80.0,72.0,-0.08140941102439576,-0.1029864333483718,tr13-0638
-0.5145127727034399,0.514243423112411,-0.5144771108429397,0.5143771284250387,0.5143352306538949,0.00018281533367225383,0.0001896883496526284,0.00021473807095413158,200.0,1.0287561958158509,89.8,76.0,56.0,-0.08132391208143716,-0.10255362498008676,tr13-0638
-0.9771894621690794,0.6271565837517337,-0.4970988405307406,0.6271565837517337,0.6271565837517337,0.2355377356689853,0.1258402601691273,0.03304433333798193,1215.0,1.604346045920813,87.0,73.0,23.0,-0.43058987118935793,-0.2635375392635625,tr13-0638
-0.7671137870624332,0.4152013373916947,-0.11274195821389955,0.4152013373916947,0.4152013373916947,0.00884241367897981,0.009679108424892864,0.002413816913753822,1185.0,1.182315124454128,48.0,35.0,12.5,-0.10231384065392148,0.16579218321189615,tr13-0638
-0.7104403487369232,0.4453367816115164,-0.13845447887954576,0.4453367816115164,0.4453367816115164,0.01296089117240773,0.0024573300864994822,0.0022702049224205267,1235.0,1.1557771303484397,49.5,35.5,12.0,-0.1151133814841032,0.2147723775530283,tr13-0638
-0.7340397725328742,0.47803636460996896,-0.13725013656405646,0.47803636460996896,0.47803636460996896,0.008041654139685217,0.01259162488799756,0.006891390533049158,1115.0,1.2120761371428432,50.5,37.5,12.5,-0.1111074491719836,0.20327241517750388,tr13-0638
-0.7420814266725595,0.4654447397219714,-0.14414152709710562,0.4654447397219714,0.4654447397219714,0.0,0.0,0.0,,1.207526166394531,47.0,34.0,12.0,-0.11614629386777542,0.19349540194268894,tr13-0638
-0.7810919354043605,0.4438410458429007,-0.1265533441204653,0.4438410458429007,0.4438410458429007,0.0,0.0,0.0,,1.2249329812472611,52.0,39.0,13.0,-0.07705462473759246,0.21737160068529696,tr13-0638
-0.7828148537114962,0.5125367422408725,-0.11850980615520745,0.5125367422408725,0.5125367422408725,0.0,0.0,0.0,,1.2953515959523687,45.0,32.0,12.0,-0.09215156087650574,0.15693816241542055,tr13-0638
-0.5435574333802203,0.3848401337719515,-0.3922322581113077,0.38774966931507626,0.3848401337719515,0.2628573167644128,0.011452604422136343,0.21556541589556896,438.33333333333337,0.9283975671521718,126.25,112.5,33.75,-0.28669641182551664,-0.032271581175672144,tr13-0638
-0.6477951937576848,0.5548783497720069,-0.07624603595497494,0.5548783497720069,0.5548783497720069,0.0,0.0,0.0,,1.2026735435296918,124.0,111.0,12.0,-0.09133695432254453,0.244293374422644,tr13-0638
-0.7759562007414129,0.40552222896680185,-0.11032814130014572,0.40552222896680185,0.40552222896680185,0.0,0.0,0.0,,1.1814784297082148,48.0,35.0,13.0,-0.09810312703617327,0.1903805768086535,tr13-0638
-0.5023296654889617,0.4362587727965136,-0.33116776327573705,0.4522896176981718,0.4445709325757774,0.25896118905509125,0.057623269301501925,0.2581885263944693,491.6666666666666,0.9385884382854752,72.66666666666667,67.25,42.0,-0.3531912247712887,-0.1765874938895267,tr13-0638
-0.8027063775550778,0.5707045603322709,-0.8348043467216733,0.5707069250616235,0.6900767138362973,0.2541974902477984,0.10537891866522583,0.3814568365450148,561.6666666666666,1.3734109378873485,112.0,93.5,77.25,0.06961881623263008,-0.31477308751205035,tr13-0638
-0.7104403487369232,0.4453367816115164,-0.13449247881144505,0.4453367816115164,0.4453367816115164,0.01296089117240773,0.0024573300864994822,0.006232204990521253,1235.0,1.1557771303484397,50.0,34.0,12.0,-0.1154172253838144,0.2147723775530283,tr13-0638
-0.7446581787734907,0.4537469097123384,-0.13141743184057356,0.4537469097123384,0.4537469097123384,0.0,0.0,0.0,,1.198405088485829,46.0,33.0,12.0,-0.11047628206806673,0.15631466195463234,tr13-0638
-0.660396681683659,0.4812112981909511,-0.11736638520100598,0.4812112981909511,0.4812112981909511,0.0,0.0,0.0,,1.1416079798746102,49.0,36.0,12.0,-0.09655671528717998,0.14429045045139108,tr13-0638
-0.7310067171458442,0.4542212062310818,-0.14610090983073554,0.4542212062310818,0.4542212062310818,0.0,0.0,0.0,,1.1852279233769258,48.0,35.0,12.0,-0.12652873234061765,0.1714534918774146,tr13-0638
-0.515318783881462,0.51379846733635,-0.4788493974530283,0.5148057233457469,0.5148057233457469,0.0016230193395773715,0.0014495757048156813,0.10879804388929076,200.0,1.0291172512178122,89.55555555555556,75.6,80.0,-0.07466638950770835,-0.10364991857834836,tr13-0638
-0.7832102402726744,0.4657883860836871,-0.11515537634455088,0.4657883860836871,0.4657883860836871,0.00039538656117821264,0.046748356157185485,0.003354429810656569,1050.0,1.2489986263563613,48.5,35.5,12.0,-0.07682680578991351,0.17052999321551787,tr13-0638
-0.7234628841811492,0.4830898585470316,-0.133121300723806,0.4830898585470316,0.4830898585470316,0.013516427189470659,0.04531050570995937,0.013601977810422885,1115.0,1.2065527427281808,54.0,40.5,12.0,-0.07204494192269384,0.19595640442441026,tr13-0638
-0.7486307872378073,0.3941966980675624,-0.11475564752549415,0.3941966980675624,0.3941966980675624,0.02717447387454547,0.04466928932678663,0.015641713234748077,1180.0,1.1428274853053697,50.5,37.5,12.0,-0.0881471823363407,0.1479906516200462,tr13-0638
-0.7824318807719988,0.445023665809785,-0.12766102089551185,0.445023665809785,0.445023665809785,0.001339945367638207,0.0011826199668843185,0.0011076767750465703,1050.0,1.2274555465817838,51.0,38.0,12.5,-0.07933019805812491,0.2040224462590042,tr13-0638
-0.6938168498856014,0.4471616693915432,-0.13531587461307049,0.4471616693915432,0.4471616693915432,0.0,0.0,0.0,,1.1409785192771449,56.0,42.0,12.0,-0.09566808449274347,0.21847173658378136,tr13-0638
-0.6727043338809692,0.5407230026119908,-0.6714119356571815,0.5834001623688135,0.5938781871892578,0.2887062157187477,0.07505031420886213,0.2893853881297242,208.75,1.21342733649296,111.55555555555556,97.66666666666669,78.0,-0.02743828852536458,-0.14463352247920228,tr13-0638
-0.7555280378902479,0.4873304647723715,-0.1477480963184033,0.4873304647723715,0.4873304647723715,0.01915249954509557,0.012795068115356885,0.005761982278269018,1030.0,1.2428585026626195,53.5,40.5,13.0,-0.11106364691290266,0.2215558526552668,tr13-0638
-0.7272810913420082,0.4618471684472142,-0.11167456895345726,0.4618471684472142,0.4618471684472142,0.033464241456406814,0.014685499055670959,0.023641305659613226,1125.0,1.1891282597892223,56.0,74.0,12.0,-0.09566808449274347,0.17146868396982667,tr13-0638
-0.7226814664802628,0.4603083834850225,-0.13908719907355832,0.4603083834850225,0.4603083834850225,0.014297844890357068,0.0225290306479502,0.019567876160175204,1060.0,1.1829898499652851,52.0,38.5,12.0,-0.1042738030772,0.0955926591217148,tr13-0638
-0.7722815359351773,0.5078438092701103,-0.11293154175342973,0.5078438092701103,0.5078438092701103,0.010533317776318827,0.004692932970762176,0.005578264401777729,1065.0,1.280125345205288,45.0,31.5,12.0,-0.09215156087650574,0.19394621879497556,tr13-0638
-0.6477951937576848,0.5548783497720069,-0.07624603595497494,0.5548783497720069,0.5548783497720069,0.0,0.0,0.0,,1.2026735435296918,124.0,111.0,12.0,-0.09133695432254453,0.244293374422644,tr13-0638
-0.5144770125960868,0.5142014479602818,-0.5143013984940583,0.5144200587627984,0.5144364225577537,0.00044575527662283465,0.0002941743872503539,0.0002695600388225395,200.0,1.0286784605563686,89.55555555555556,75.55555555555556,86.66666666666669,-0.07400023696962586,-0.1029701816381225,tr13-0638
-0.7862358539421943,0.37074271956638827,-0.1002659032513153,0.37074271956638827,0.37074271956638827,0.0,0.0,0.0,,1.1569785735085825,48.0,35.0,13.0,-0.08695164358920246,0.20149480089980232,tr13-0638
-0.7234628841811492,0.4830898585470316,-0.08670516140181925,0.4830898585470316,0.4830898585470316,0.013516427189470659,0.04531050570995937,0.03281416151156388,1115.0,1.2065527427281808,49.0,31.0,12.0,-0.08651244444188141,0.19595640442441026,tr13-0638
-0.7722815359351773,0.5078438092701103,-0.1404208914091294,0.5078438092701103,0.5078438092701103,0.010533317776318827,0.004692932970762176,0.02191108525392195,1065.0,1.280125345205288,45.5,33.5,12.0,-0.0986084739499076,0.19394621879497556,tr13-0638
-0.7585100408875287,0.4096006899221379,-0.12120490410774985,0.4096006899221379,0.4096006899221379,0.007154806974541572,0.0332982877512264,0.0151201625221953,1130.0,1.1681107308096663,48.0,35.0,12.0,-0.1049298177697826,0.187559571668811,tr13-0638
-0.6477951937576848,0.5548783497720069,-0.07624603595497494,0.5548783497720069,0.5548783497720069,0.0,0.0,0.0,,1.2026735435296918,124.0,111.0,12.0,-0.09133695432254453,0.244293374422644,tr13-0638
-0.20415163416054674,1.3701932336931515,-0.8384929692496831,1.3701932336931515,1.3701932336931515,0.0,0.0,0.0,,1.5743448678536982,44.0,34.0,17.0,-0.7836776421624053,-0.17610069439217707,tr13-0638
-0.7340397725328742,0.47803636460996896,-0.13725013656405646,0.47803636460996896,0.47803636460996896,0.008041654139685217,0.01259162488799756,0.006891390533049158,1115.0,1.2120761371428432,50.0,37.5,12.5,-0.10885074273860564,0.20327241517750388,tr13-0638
-0.7104403487369232,0.4453367816115164,-0.13845447887954576,0.4453367816115164,0.4453367816115164,0.01296089117240773,0.0024573300864994822,0.0022702049224205267,1235.0,1.1557771303484397,46.5,35.5,12.0,-0.12550684836692452,0.2147723775530283,tr13-0638
-0.7722815359351773,0.5078438092701103,-0.1404208914091294,0.5078438092701103,0.5078438092701103,0.010533317776318827,0.004692932970762176,0.02191108525392195,1065.0,1.280125345205288,46.5,33.5,12.0,-0.10830680203172888,0.19394621879497556,tr13-0638
-0.7513552339129872,0.4428989776733643,-0.13632506662994515,0.4428989776733643,0.4428989776733643,0.0,0.0,0.0,,1.1942542115863517,48.0,35.0,12.0,-0.11952179216502296,0.14229116011642284,tr13-0638
-0.719602079333653,0.4429692218192384,-0.13988827008192645,0.4429692218192384,0.4429692218192384,0.011404637812191198,0.011251984411843384,0.006212639748809076,1215.0,1.162571301152891,47.5,34.5,12.0,-0.12326517705295925,0.16207015693380994,tr13-0638
-0.6477951937576848,0.5548783497720069,-0.07624603595497494,0.5548783497720069,0.5548783497720069,0.0,0.0,0.0,,1.2026735435296918,124.0,111.0,12.0,-0.09133695432254453,0.244293374422644,tr13-0638
-0.719602079333653,0.4429692218192384,-0.13710687439276065,0.4429692218192384,0.4429692218192384,0.011404637812191198,0.011251984411843384,0.008994035437974906,1215.0,1.162571301152891,48.0,33.5,12.0,-0.12652873234061765,0.16207015693380994,tr13-0638
-0.7658867800510072,0.3859702390658162,-0.1127564273892804,0.3859702390658162,0.3859702390658162,0.009918481061345574,0.03644283032504034,0.013642493098534332,1165.0,1.1518570191168234,50.0,37.0,12.0,-0.08724750836711254,0.15120522698055805,tr13-0638
-0.7433061725442449,1.2216108700242092,-0.8582753316718439,1.3701932336931515,1.2216108700242092,0.09518679670543824,0.14858236366894229,0.01978236242216075,250.0,1.964917042568454,114.0,100.0,61.5,-0.5738689845497336,-0.4424813027595129,tr13-0638
-0.5541333206008683,0.3848401337719515,-0.3922322581113077,0.38774966931507626,0.3848401337719515,0.24640914088161026,0.011452604422136343,0.21556541589556896,438.33333333333337,0.93897345437282,125.0,111.25,32.5,-0.28669641182551664,-0.04697714438696588,tr13-0638
-0.5143262309403049,0.5142756920108904,-0.5142709235790061,0.5144257963113675,0.5144385058090446,0.00027233845834663507,0.0001944346409481606,0.0002658514248819768,200.0,1.0286019229511951,89.55555555555556,75.55555555555556,82.22222222222223,-0.07402769408407549,-0.10270982117166756,tr13-0638
-0.7617482181588585,0.5031508762993482,-0.16233197666305135,0.5031508762993482,0.5031508762993482,0.0,0.0,0.0,,1.2648990944582068,48.0,35.0,12.0,-0.12446204318695205,0.2309542751745305,tr13-0638
-0.5143189128690641,0.5142312862211909,-0.514345113252976,0.5144385058090446,0.5143971338654014,0.00020443189275013072,0.00022686504447490556,0.00019050357733492958,200.0,1.028550199090255,89.55555555555556,75.55555555555556,77.77777777777777,-0.07410918065451336,-0.10275033697558243,tr13-0638
-0.7836887264867447,0.4326231578515855,-0.12028482210222638,0.4326231578515855,0.4326231578515855,8.309965289216015e-05,0.013583127925083871,0.008483875568332057,1060.0,1.2163118843383305,51.0,38.0,12.0,-0.07155391104098931,0.18739755792416327,tr13-0638
-0.4137812781455987,0.3757213223638585,-0.14874803537883433,0.38727046268421067,0.3757213223638585,0.3022172499260927,0.014336751508044124,0.19085343629940485,557.5,0.7895026005094573,67.66666666666667,56.0,35.666666666666664,-0.11985613676475147,-0.04858277132781914,tr13-0638
-0.7824318807719988,0.445023665809785,-0.12766102089551185,0.445023665809785,0.445023665809785,0.001339945367638207,0.0011826199668843185,0.0011076767750465703,1050.0,1.2274555465817838,49.0,38.0,12.5,-0.09810192492669434,0.2040224462590042,tr13-0638
-0.7836056268338526,0.4190400299265016,-0.11180094653389433,0.4190400299265016,0.4190400299265016,0.0,0.0,0.0,,1.202645656760354,52.0,39.0,12.0,-0.06150205070332127,0.1841218240156152,tr13-0638
-0.6938168498856014,0.4471616693915432,-0.13531587461307049,0.4471616693915432,0.4471616693915432,0.0,0.0,0.0,,1.1409785192771449,56.0,42.0,12.0,-0.09566808449274347,0.21847173658378136,tr13-0638
-0.5143168462778858,0.5142833882505216,-0.4838183406049794,0.5144299206688605,0.5144299206688604,0.00025989239947263174,0.00018589630330034703,0.09135809705434908,200.0,1.0286002345284075,89.55555555555556,75.7,80.0,-0.07402769408407549,-0.10272056643998348,tr13-0638
-0.7259981183931891,0.4906279894979666,-0.1303587460310073,0.4906279894979666,0.4906279894979666,0.0,0.0,0.0,,1.2166261078911556,54.0,41.0,13.0,-0.1060686044761918,0.2130494284123188,tr13-0638
-0.7114458361049637,0.4439881565802496,-0.11184521435271172,0.4439881565802496,0.4439881565802496,0.05104915442130475,0.03722314161070156,0.005521170848294246,1175.0,1.1554339926852129,50.5,37.5,12.5,-0.07730033902640307,0.1864867065238042,tr13-0638
-0.7083836215899058,0.4828374141329727,-0.15865507523373354,0.4828374141329727,0.4828374141329727,0.0,0.0,0.0,,1.1912210357228783,54.0,41.0,12.0,-0.12203516171251855,0.13450822868318854,tr13-0638
-0.7018816534386401,0.4877810168242671,-0.1368372586559784,0.4877810168242671,0.4877810168242671,0.008064803553038569,0.040619347432723885,0.00988601987825048,1135.0,1.1896626702629072,52.0,38.0,12.0,-0.0905114730028574,0.21092460502547627,tr13-0638
-0.7569661466640174,0.4163722173727433,-0.12909538176377508,0.4163722173727433,0.4163722173727433,0.029269707278176908,0.04562949780635517,0.028829478512459768,1180.0,1.1733383640367607,49.0,36.0,13.0,-0.10920596152782384,0.2108738331224745,tr13-0638
-0.7416517265000941,0.5013163235826064,-0.4640545071927587,0.5013163235826064,0.5013163235826064,0.0,0.0,0.0,,1.2429680500827005,101.0,87.0,32.0,-0.3738697157316663,-0.6297541152951788,tr13-0638
-0.5144989174571858,0.5141563826110775,-0.4667509520183292,0.5144247568751482,0.5144247568751483,0.00042795606834259217,0.0003101010873778523,0.14295903087953993,200.0,1.028655300068263,89.55555555555556,71.0,88.0,-0.07410165183299508,-0.10296343621410592,tr13-0638
-0.7310067171458442,0.4542212062310818,-0.14610090983073554,0.4542212062310818,0.4542212062310818,0.0,0.0,0.0,,1.1852279233769258,48.0,35.0,12.0,-0.12652873234061765,0.1714534918774146,tr13-0638
-0.7083836215899058,0.4828374141329727,-0.15865507523373354,0.4828374141329727,0.4828374141329727,0.0,0.0,0.0,,1.1912210357228783,54.0,41.0,12.0,-0.12203516171251855,0.13450822868318854,tr13-0638
-0.5144179752100516,0.514253640589192,-0.5143779490624336,0.5143698713259652,0.514390446430986,0.00015262226714636364,0.00017143012058197423,0.0001818207247495681,200.0,1.0286716157992437,89.55555555555556,75.55555555555556,73.33333333333333,-0.07410630394746001,-0.10273705749026807,tr13-0638
-0.7081974415214618,0.43171723740739504,-0.13367563033311738,0.43171723740739504,0.43171723740739504,0.0,0.0,0.0,,1.1399146789288568,47.0,34.0,12.0,-0.12000162176530088,0.1526868219902053,tr13-0638
-0.7099464569916786,0.528400364256991,-0.1467232785342289,0.528400364256991,0.528400364256991,0.0,0.0,0.0,,1.2383468212486697,59.0,45.0,12.0,-0.05757743940350625,0.2033774734671712,tr13-0638
-0.6707337170647085,0.3749252177093212,-0.2052096618093091,0.3749252177093212,0.3749252177093212,0.14859793833127727,0.06560334928315131,0.12862189886515699,575.0,1.0456589347740295,105.0,91.0,31.0,-0.1913690202856849,-0.16756122836269013,tr13-0638
-0.7265209001816982,0.4682921619226556,-0.13632521792222654,0.4682921619226556,0.4682921619226556,0.018137278591792483,0.014545252210317106,0.004907786081653015,1115.0,1.1948130621043538,44.5,34.0,12.0,-0.12570686530536693,0.14541144531891048,tr13-0638
-0.7398641685398224,0.4608699325917118,-0.09697707407257904,0.4608699325917118,0.4608699325917118,0.0794674868561634,0.020341365599239297,0.020389311128426943,1210.0,1.2007341011315342,48.0,34.5,12.0,-0.07530667688625148,0.12592665632823472,tr13-0638
-0.4698863146775537,0.3884826250777976,-0.27064475915706226,0.3884826250777976,0.3911624983385724,0.2636949986431357,0.03826519441525925,0.2836377897256017,511.6666666666666,0.8583689397553512,97.33333333333331,83.0,41.5,-0.35088716561098354,-0.17333568869390964,tr13-0638
-0.7081974415214618,0.43171723740739504,-0.13367563033311738,0.43171723740739504,0.43171723740739504,0.0,0.0,0.0,,1.1399146789288568,47.0,34.0,12.0,-0.12000162176530088,0.1526868219902053,tr13-0638
-0.5144101129506897,0.5144169220501135,-0.5069277062771871,0.5149478107266259,0.5146432154655282,0.0005812708179058992,0.0006880130008153714,0.022401687502158662,200.0,1.0288270350008029,94.0,75.9,68.0,-0.07415646667851086,-0.10281309129064352,tr13-0638
-0.6974794575645155,0.4428794515250169,-0.13618427395712526,0.4428794515250169,0.4428794515250169,0.0,0.0,0.0,,1.1403589090895323,49.0,35.0,12.0,-0.114809537584392,0.2092740939149128,tr13-0638
-0.7810919354043605,0.4438410458429007,-0.1265533441204653,0.4438410458429007,0.4438410458429007,0.0,0.0,0.0,,1.2249329812472611,52.0,39.0,13.0,-0.07705462473759246,0.21737160068529696,tr13-0638
-0.7259981183931891,0.4906279894979666,-0.1303587460310073,0.4906279894979666,0.4906279894979666,0.0,0.0,0.0,,1.2166261078911556,54.0,41.0,13.0,-0.1060686044761918,0.2130494284123188,tr13-0638
-0.7247734121280536,0.4488254646830567,-0.17263816682873934,0.4488254646830567,0.4488254646830567,0.03597192067036148,0.027707202819828414,0.05790125729890391,1140.0,1.1735988768111103,90.0,76.5,12.5,-0.13351547835759905,0.1659706128371592,tr13-0638
-0.8027063775550778,0.5707045603322709,-0.808202656055654,0.5707069250616235,0.6900767138362973,0.2541974902477984,0.10537891866522583,0.4142907319184361,561.6666666666666,1.3734109378873485,112.0,92.75,77.25,0.06961881623263008,-0.31477308751205035,tr13-0638
-0.7837718261396369,0.4462062857766693,-0.12876869767055846,0.4462062857766693,0.4462062857766693,0.0,0.0,0.0,,1.2299781119163062,50.0,37.0,12.0,-0.08160577137865735,0.19067329183271145,tr13-0638
-0.7630459740220586,0.4885803263149237,-0.14562553961450342,0.4885803263149237,0.4885803263149237,0.001297755863200134,0.014570549984424502,0.016706437048547948,1085.0,1.2516263003369823,49.0,36.0,12.0,-0.12004364562949695,0.2031737398274168,tr13-0638
-0.7559682989896617,0.4224130693908565,-0.12639892048781473,0.4224130693908565,0.4224130693908565,0.0,0.0,0.0,,1.1783813683805182,49.0,36.0,12.0,-0.1024121315502577,0.1527786440572326,tr13-0638
-0.417361446780236,0.3910102483484142,-0.4937770324517314,0.3948896290725805,0.3910102483484142,0.2434464907595493,0.004754114903941046,0.14391861099332934,367.5,0.8083716951286503,130.0,116.33333333333331,41.66666666666666,-0.37608930743674057,-0.08043182823929255,tr13-0638
-0.7513552339129872,0.4428989776733643,-0.13632506662994515,0.4428989776733643,0.4428989776733643,0.0,0.0,0.0,,1.1942542115863517,48.0,35.0,12.0,-0.11952179216502296,0.14229116011642284,tr13-0638
-0.4479561216342266,0.3761500469559149,-0.3636698041209073,0.38481190219617895,0.3761500469559149,0.27534611531406705,0.04799432672382716,0.18270581039545292,441.6666666666666,0.8241061685901416,122.25,108.5,39.25,-0.32062276348581703,-0.12499947474749487,tr13-0638
-0.4066766452205914,0.4163722173727433,-0.12909538176377508,0.4163722173727433,0.4163722173727433,0.3210197941652492,0.04562949780635517,0.028829478512459768,1180.0,0.8230488625933348,47.5,34.0,11.0,-0.10920596152782384,0.10953075468283822,tr13-0638
-0.7862358539421943,0.37074271956638827,-0.1002659032513153,0.37074271956638827,0.37074271956638827,0.0,0.0,0.0,,1.1569785735085825,48.0,35.0,13.0,-0.08695164358920246,0.20149480089980232,tr13-0638
-0.5155498269308819,0.5138317545352914,-0.5147080369839814,0.5148581475902094,0.5149509278790656,0.0015469553467931515,0.001524356835401472,0.0012634997271704135,200.0,1.0293815814661729,89.55555555555556,75.55555555555556,82.22222222222223,-0.07439420142361723,-0.1038250451926624,tr13-0638
-0.7810919354043605,0.4438410458429007,-0.1265533441204653,0.4438410458429007,0.4438410458429007,0.0,0.0,0.0,,1.2249329812472611,52.0,39.0,13.0,-0.07705462473759246,0.21737160068529696,tr13-0638
-0.6938168498856014,0.4471616693915432,-0.13531587461307049,0.4471616693915432,0.4471616693915432,0.0,0.0,0.0,,1.1409785192771449,56.0,42.0,12.0,-0.09566808449274347,0.21847173658378136,tr13-0638
-0.6477951937576848,0.5548783497720069,-0.07624603595497494,0.5548783497720069,0.5548783497720069,0.0,0.0,0.0,,1.2026735435296918,124.0,111.0,12.0,-0.09133695432254453,0.244293374422644,tr13-0638
-0.7846248612969711,0.3904041682135223,-0.10875149748337656,0.3904041682135223,0.3904041682135223,0.001610992645223186,0.01966144864713401,0.008485594232061265,1140.0,1.1750290295104937,49.5,36.0,13.0,-0.08926865755022385,0.09965306698853399,tr13-0638
-0.7245763763745512,0.4504338512867239,-0.12445746458753412,0.4504338512867239,0.4504338512867239,0.003120063011289309,0.011567863892374769,0.033467395688700725,1220.0,1.175010227661275,50.0,32.5,12.5,-0.1314602794664452,0.18330117934067786,tr13-0638
-0.4455167652201453,0.4103987085355447,-0.3987726891332343,0.4103987085355447,0.4139718728832445,0.3005626445787569,0.005571470333376296,0.2039610957690644,490.0,0.8559154737556901,97.33333333333331,83.66666666666667,37.66666666666666,-0.35088716561098354,-0.09056422499562017,tr13-0638
-0.2093288351320126,0.2660394042762977,-0.08162831416552757,0.2660394042762977,0.2660394042762977,0.01217982887456756,0.013352717946378878,0.019339502781010137,1190.0,0.4753682394083103,32.5,20.5,5.0,-0.0029404844867983518,-0.0177330872735474,tr13-0538
-0.2108661970936145,0.23987831599438794,-0.10921088981321678,0.23987831599438794,0.23987831599438794,0.003843946472069454,0.016584996808231698,0.010060972955286678,1215.0,0.4507445130880025,19.5,9.0,5.0,0.03138468751735303,-0.03623966585375908,tr13-0538
-0.2582668455618184,0.1904272723116438,-0.05769865724291143,0.1904272723116438,0.1904272723116438,0.0,0.0,0.0,,0.4486941178734622,46.0,32.0,5.0,-0.05499347259126739,-0.0345448661329296,tr13-0538
-0.24149061533129185,0.2534934855303751,-0.05552542709307155,0.2534934855303751,0.2534934855303751,0.0,0.0,0.0,,0.4949841008616669,45.0,31.0,5.0,-0.047044683431353235,-0.028396084016848344,tr13-0538
-0.2151981016514079,0.2499990496697133,-0.11011252253966686,0.2499990496697133,0.2499990496697133,0.003108750939923757,0.002889270498784805,0.006069992411112911,1225.0,0.4651971513211212,20.5,8.5,4.5,0.01913189470844255,-0.03470371900913887,tr13-0538
-0.2078084314429154,0.2326856369612978,-0.11525043651544364,0.2326856369612978,0.2326856369612978,0.0,0.0,0.0,,0.4404940684042132,22.0,8.0,4.0,-0.012037568399293307,-0.03890751913861175,tr13-0538
-0.21117882131933927,0.2338901633235817,-0.1100424407443688,0.2338901633235817,0.2338901633235817,0.0,0.0,0.0,,0.445068984642921,23.0,9.0,5.0,-0.009085081954245464,-0.03871909782644706,tr13-0538
-0.2390735846315069,0.1918660851505312,-0.059474620839907386,0.1918660851505312,0.1918660851505312,0.02141044379319794,0.007158318073360495,0.00028660372847863486,1130.0,0.4309396697820381,32.0,20.0,4.5,0.00012994107339091635,-0.03312243551431307,tr13-0538
-0.2708300289096561,0.2385820307231577,-0.06538826064136041,0.2385820307231577,0.2385820307231577,0.02355234801239861,0.008202717511074459,0.0073913178211238795,1175.0,0.5094120596328138,45.5,31.5,5.0,-0.0535759577826639,-0.02534252076851368,tr13-0538
-0.2266466001607449,0.2699819380766988,-0.10271130211575716,0.2699819380766988,0.2699819380766988,0.0,0.0,0.0,,0.4966285382374437,19.0,9.0,5.0,0.05734756727702243,-0.030013695202151386,tr13-0538
-0.21538112339973672,0.2224002398343224,-0.08485389330858542,0.2224002398343224,0.2224002398343224,0.004117826081643683,0.03639521494752414,0.03521143264101898,1140.0,0.4377813632340591,35.5,21.5,5.0,-0.024356693297490926,-0.0259756933154636,tr13-0538
-0.2574462258634944,0.20685639177316525,-0.0719670674107328,0.20685639177316525,0.20685639177316525,0.00788703847511518,0.007717020568415847,0.00658324150095243,1035.0,0.4643026176366596,46.5,32.5,4.5,-0.05471373557011595,-0.019106045455268915,tr13-0538
-0.21642408148831946,0.2547141027775923,-0.09610749855255404,0.2547141027775923,0.2547141027775923,0.007687179579153283,0.006934927851262693,0.013525406924026116,1105.0,0.4711381842659118,18.0,8.0,4.5,0.05786797562370425,-0.02202349997626431,tr13-0538
-0.18640073885690087,0.2320144015677823,-0.1194293657241709,0.2320144015677823,0.2320144015677823,0.009717655380248436,0.01971747384242299,0.009467588874975471,1030.0,0.4184151404246832,22.0,8.0,5.0,-0.013620923921630385,-0.02282649085892512,tr13-0538
-0.2366979799863053,0.190800823452186,-0.05789491092340851,0.190800823452186,0.190800823452186,0.014280535543185103,0.016461832123405167,0.01027486673916737,970.0,0.4274988034384912,47.0,33.0,5.0,-0.044442615051812864,-0.014697485831070625,tr13-0538
-0.2263879278652452,0.2385049152019841,-0.07814392720424493,0.2385049152019841,0.2385049152019841,0.010495835670577977,0.009213084689906515,0.018985023935875846,1105.0,0.4648928430672292,32.0,20.0,5.0,0.0031152209143758824,-0.01766622130862977,tr13-0538
-0.2066314221689082,0.2426391503137077,-0.1199089112468818,0.2426391503137077,0.2426391503137077,0.0,0.0,0.0,,0.4492705724826159,20.0,9.0,5.0,0.034697472956641974,-0.02778656067853752,tr13-0538
-0.2005069382568075,0.24283312133392135,-0.13026576670646686,0.24283312133392135,0.24283312133392135,0.00824379702973678,0.01199553459958598,0.0024437568391603303,1160.0,0.4433400595907289,22.5,8.5,4.5,-0.018917262669825158,-0.032176006319192575,tr13-0538
-0.19916582499808225,0.24185048953255964,-0.13837946932814074,0.24185048953255964,0.24185048953255964,0.0018805302454220074,0.0015551123682964465,0.005142219145671326,1140.0,0.4410163145306418,23.0,9.0,5.0,-0.02385074994847034,-0.03426081417466061,tr13-0538
-0.25198062286413314,0.1944924058152998,-0.008992954836826309,0.1944924058152998,0.1944924058152998,0.02773009821541897,0.016600477814436146,0.04572580681382135,1045.0,0.44647302867943295,18.0,12.0,5.0,0.0493215073749835,-0.0216010555319682,tr13-0538
-0.2877792641656332,0.250461971439288,-0.0677135266336316,0.250461971439288,0.250461971439288,0.0,0.0,0.0,,0.5382412356049212,49.0,35.0,5.0,-0.05745808194400729,-0.017513009202342042,tr13-0538
-0.2403268195576948,0.23854011184031754,-0.07524634108663539,0.23854011184031754,0.23854011184031754,0.01914203966793084,0.018393296837323048,0.011196641635082669,1200.0,0.4788669313980123,33.0,21.0,4.5,0.011240282324680832,-0.030075692373402605,tr13-0538
-0.21596626568493965,0.259570235058162,-0.1007647258614698,0.259570235058162,0.259570235058162,0.009918803510301484,0.017045967220477784,0.00077069800676087,1130.0,0.4755365007431017,19.0,9.0,5.0,0.04005475286232155,-0.032567578943540884,tr13-0538
-0.2442322866491148,0.2020996091927956,-0.05198268070226333,0.2020996091927956,0.2020996091927956,0.008227908854546606,0.005227270697769779,0.006311399325130127,1120.0,0.4463318958419104,44.5,30.5,4.5,-0.04458339737536887,-0.03152905685109293,tr13-0538
-0.2539728888691565,0.22391121702367286,-0.0713675936872475,0.22391121702367286,0.22391121702367286,0.0,0.0,0.0,,0.4778841058928294,44.0,30.0,5.0,-0.05654024658322215,-0.023950333634746537,tr13-0538
-0.2486460589341527,0.2231123417154377,-0.056502418406613776,0.2231123417154377,0.2231123417154377,0.0,0.0,0.0,,0.4717584006495904,49.0,35.0,5.0,-0.043381276773361364,-0.030083184132946524,tr13-0538
-0.2409565323066274,0.2277000975603869,-0.05816657537109375,0.2277000975603869,0.2277000975603869,0.007965336941839346,0.007766508052498136,0.008915923738429025,1160.0,0.4686566298670143,47.0,33.0,5.0,-0.0392643288410551,-0.0324029082971386,tr13-0538
-0.287530917214776,0.2342959556497585,-0.07797780357669758,0.2342959556497585,0.2342959556497585,0.003179983975089229,0.008733485791531992,0.0010131759975637866,1165.0,0.5218268728645346,47.0,33.0,5.0,-0.06500733836204392,-0.025935431524903227,tr13-0538
-0.2435266146432754,0.2483548396890073,-0.056758431799902226,0.2483548396890073,0.2483548396890073,0.005244056341872444,0.004648794209913168,0.0041023118966703395,1000.0,0.4918814543322827,48.0,31.5,5.0,-0.05009383055392128,-0.015969684540823436,tr13-0538
-0.20242764807315766,0.2497555251682675,-0.11926493003786325,0.2497555251682675,0.2497555251682675,0.00630925383600843,0.0019763502419378326,0.009632024561283113,1095.0,0.4521831732414252,20.0,8.0,4.5,0.016088645179258752,-0.02418195811892522,tr13-0538
-0.2517214246310128,0.2401875336741253,-0.06265899888301685,0.2401875336741253,0.2401875336741253,0.013438866329609821,0.012816100224795207,0.004926370470630003,1035.0,0.491908958305138,48.5,34.5,5.0,-0.04344890687059424,-0.005448645039277501,tr13-0538
-0.2774332026733798,0.21470185821798748,-0.06627040151543516,0.21470185821798748,0.21470185821798748,0.016949174248674925,0.015677454994095744,0.0065091769470491286,1080.0,0.4921350608913672,46.0,32.0,5.0,-0.05106190458656993,-0.027427339839548884,tr13-0538
-0.22411126106747276,0.26164903062885503,-0.08258209162852792,0.26164903062885503,0.26164903062885503,0.0,0.0,0.0,,0.4857602916963277,18.0,8.0,5.0,0.06678301027168879,-0.020562905846963832,tr13-0538
-0.24955918738837926,0.21457341234158106,-0.06538382590978037,0.21457341234158106,0.21457341234158106,0.0,0.0,0.0,,0.4641325997299603,47.0,33.0,5.0,-0.04929014425564912,-0.02147566300470167,tr13-0538
-0.25097851552949035,0.20726265557559115,-0.06816977766257587,0.20726265557559115,0.20726265557559115,0.0,0.0,0.0,,0.4582411711050815,47.0,33.0,5.0,-0.05345879680497416,-0.008321510889253349,tr13-0538
-0.21208935071148416,0.25288832016849805,-0.11618251495077975,0.25288832016849805,0.25288832016849805,0.0,0.0,0.0,,0.4649776708799822,23.0,9.0,5.0,-0.00846077942693466,-0.03769621829537577,tr13-0538
-0.19226314122707072,0.23083758673433535,-0.13270952354562715,0.23083758673433535,0.23083758673433535,0.0,0.0,0.0,,0.4231007279614061,22.0,8.0,4.0,-0.022860260219176,-0.03695629512282792,tr13-0538
-0.23705994671461905,0.2277817381225263,-0.05319723123404056,0.2277817381225263,0.2277817381225263,0.011586112219533635,0.004669396407088577,0.0033051871725732172,1120.0,0.4648416848371453,48.5,34.5,5.0,-0.03738288573976911,-0.025532438719699336,tr13-0538
-0.19665474823528747,0.2355664819492993,-0.1329733868640483,0.2355664819492993,0.2355664819492993,0.004391607008216752,0.004728895214963905,0.0002638633184211397,1165.0,0.4322212301845868,22.5,8.5,4.5,-0.022043345084776417,-0.034980223825039417,tr13-0538
-0.2616550610013816,0.23563777696718,-0.0617621920618294,0.23563777696718,0.23563777696718,0.02016444567008971,0.017855708563195072,0.00623676496875785,1180.0,0.4972928379685616,47.5,33.5,5.0,-0.05022283276181688,-0.02471186058757244,tr13-0538
-0.2112617571817877,0.2451785751027991,-0.10851893119350127,0.2451785751027991,0.2451785751027991,0.004630335012879502,0.002539424789091457,0.011389980053380516,1225.0,0.4564403322845868,19.5,9.0,5.0,0.04710917852315473,-0.024386521147780768,tr13-0538
-0.2665608021124173,0.2346342576686604,-0.06891268563785317,0.2346342576686604,0.2346342576686604,0.017790131127269473,0.009071787810433815,0.008051941941280616,1095.0,0.5011950597810777,48.0,34.0,5.0,-0.05589226857065811,-0.024810500527999397,tr13-0538
-0.1995502639598863,0.19331795952707007,-0.07879091051671827,0.19331795952707007,0.19331795952707007,0.022867180483233857,0.01897896819828926,0.031170866332477145,1010.0,0.3928682234869564,34.5,20.5,5.0,-0.02294631526235505,-0.02092331017922624,tr13-0538
-0.24149061533129185,0.2534934855303751,-0.05552542709307155,0.2534934855303751,0.2534934855303751,0.0,0.0,0.0,,0.4949841008616669,45.0,31.0,5.0,-0.047044683431353235,-0.028396084016848344,tr13-0538
-0.23972336168212094,0.2281811757766439,-0.06062981887435742,0.2281811757766439,0.2281811757766439,0.014249527187035566,0.004269958752970995,0.01073777481289008,1075.0,0.4679045374587648,46.0,32.0,5.0,-0.0439623706446995,-0.02246601347059934,tr13-0538
-0.1995502639598863,0.19331795952707007,-0.06914309548352318,0.19331795952707007,0.19331795952707007,0.022867180483233857,0.01897896819828926,0.04081868136567225,1010.0,0.3928682234869564,19.5,8.0,5.0,0.024399103170692885,-0.02092331017922624,tr13-0538
-0.2517214246310128,0.2401875336741253,-0.06265899888301685,0.2401875336741253,0.2401875336741253,0.013438866329609821,0.012816100224795207,0.004926370470630003,1035.0,0.491908958305138,48.5,34.5,5.0,-0.04344890687059424,-0.015488024077942971,tr13-0538
-0.2439311395326568,0.21827724304383436,-0.06366434046547248,0.21827724304383436,0.21827724304383436,0.0070473759968335955,0.0110145874682432,0.004505437197103404,1015.0,0.4622083825764911,43.5,32.0,5.0,-0.0542253455415988,-0.011333735944744436,tr13-0538
-0.2210259199846032,0.21969830316635505,-0.07283265461592107,0.21969830316635505,0.21969830316635505,0.014978457809965012,0.02282596467132922,0.027161373238787867,1110.0,0.4407242231509582,32.0,20.0,5.0,-0.004514158035027487,-0.03057246122932108,tr13-0538
-0.2700431761166449,0.2041046703578144,-0.06284880713674934,0.2041046703578144,0.2041046703578144,0.011776330554826436,0.013677398046170576,0.005150149893837913,1085.0,0.4741478464744592,48.0,34.0,5.0,-0.05419722734177397,-0.027786251645613068,tr13-0538
-0.253216542186409,0.2156190484571191,-0.06483083685732048,0.2156190484571191,0.2156190484571191,0.0007563466827475718,0.008292168566553751,0.006536756829927021,1145.0,0.4688355906435281,44.0,30.0,4.5,-0.05363766837782283,-0.02851912237873755,tr13-0538
-0.2582668455618184,0.1904272723116438,-0.05769865724291143,0.1904272723116438,0.1904272723116438,0.0,0.0,0.0,,0.4486941178734622,46.0,32.0,5.0,-0.05499347259126739,-0.0345448661329296,tr13-0538
-0.22989873396131175,0.2503016323506518,-0.07978397861081275,0.2503016323506518,0.2503016323506518,0.011591881369980088,0.003191853179723328,0.0242585515177412,1195.0,0.4802003663119635,31.5,19.5,4.5,-0.00016005729376673133,-0.030053651869875162,tr13-0538
-0.2435266146432754,0.2483548396890073,-0.0592966860544797,0.2483548396890073,0.2483548396890073,0.005244056341872444,0.004648794209913168,0.0015640576420928552,1000.0,0.4918814543322827,48.0,34.0,5.0,-0.044998209402222086,-0.015969684540823436,tr13-0538
-0.22353492454250254,0.2667748054781402,-0.09398920329497436,0.2667748054781402,0.2667748054781402,0.002350144652738584,0.009841396800499613,0.007546220573256318,1155.0,0.4903097300206427,19.0,9.0,5.0,0.05880697218423761,-0.031255048989691725,tr13-0538
-0.2369621405290012,0.25838334315546546,-0.08035412246799684,0.25838334315546546,0.25838334315546546,0.010315540368256312,0.01159859492123333,0.022357179647760315,1180.0,0.4953454836844666,32.0,20.0,5.0,0.002930336471969965,-0.029165796688047845,tr13-0538
-0.2708300289096561,0.2385820307231577,-0.06229358785742796,0.2385820307231577,0.2385820307231577,0.02355234801239861,0.008202717511074459,0.010485990605056322,1175.0,0.5094120596328138,46.0,30.0,5.0,-0.055665021232245294,-0.02534252076851368,tr13-0538
-0.2818195066714713,0.21778206840398492,-0.06799895703058725,0.21778206840398492,0.21778206840398492,0.0,0.0,0.0,,0.4996015750754562,50.0,36.0,5.0,-0.053400982092280544,-0.021027637158296537,tr13-0538
-0.2818195066714713,0.21778206840398492,-0.06799895703058725,0.21778206840398492,0.21778206840398492,0.0,0.0,0.0,,0.4996015750754562,50.0,36.0,5.0,-0.053400982092280544,-0.021027637158296537,tr13-0538
-0.25198062286413314,0.1944924058152998,-0.06057698338857295,0.1944924058152998,0.1944924058152998,0.02773009821541897,0.016600477814436146,0.0058582217379252975,1045.0,0.44647302867943295,31.5,19.5,5.0,0.002844299565374197,-0.0216010555319682,tr13-0538
-0.21183544783570152,0.23840279073201,-0.1131727477349897,0.23840279073201,0.23840279073201,0.0006566265163622381,0.004512627408428227,0.0031303069906208967,1210.0,0.45023823856771145,23.0,9.0,5.0,-0.010634749830994166,-0.03541204056828951,tr13-0538
-0.22150866400658012,0.2526866863299188,-0.10096781694653773,0.2526866863299188,0.2526866863299188,0.0,0.0,0.0,,0.474195350336499,18.0,8.0,5.0,0.043437791012413324,-0.03254565167128101,tr13-0538
-0.21249207435206371,0.24291541814043816,-0.1163030547256106,0.24291541814043816,0.24291541814043816,0.0,0.0,0.0,,0.4554074924925019,23.0,9.0,5.0,-0.012184417707742869,-0.032104983310131965,tr13-0538
-0.21442098107882407,0.20929896520037625,-0.08461522892789879,0.20929896520037625,0.20929896520037625,0.003242159759484859,0.024591198123205496,0.025427211816470025,1195.0,0.4237199462792003,20.5,8.5,4.5,0.018816794066715468,-0.03623821626952925,tr13-0538
-0.22425052464871412,0.17789192800086367,-0.054718761650647665,0.17789192800086367,0.17789192800086367,0.0,0.0,0.0,,0.4021424526495778,18.0,8.0,5.0,0.0493215073749835,-0.02803671009087796,tr13-0538
-0.25198062286413314,0.1944924058152998,-0.006237253967061672,0.1944924058152998,0.1944924058152998,0.02773009821541897,0.016600477814436146,0.04848150768358599,1045.0,0.44647302867943295,17.0,8.0,5.0,0.06475153501990663,-0.0216010555319682,tr13-0538
-0.24149061533129185,0.2534934855303751,-0.05552542709307155,0.2534934855303751,0.2534934855303751,0.0,0.0,0.0,,0.4949841008616669,45.0,31.0,5.0,-0.047044683431353235,-0.028396084016848344,tr13-0538
-0.2524601955036614,0.20732687989056536,-0.05829408002739346,0.20732687989056536,0.20732687989056536,0.0,0.0,0.0,,0.4597870753942268,44.0,30.0,4.0,-0.0507350901724235,-0.03308791112272856,tr13-0538
-0.23299119536478805,0.23546660561288504,-0.04925065163266472,0.23546660561288504,0.23546660561288504,0.0,0.0,0.0,,0.4684578009776731,46.0,32.0,5.0,-0.03720120289544563,-0.030393482849051745,tr13-0538
-0.24149061533129185,0.2534934855303751,-0.05552542709307155,0.2534934855303751,0.2534934855303751,0.0,0.0,0.0,,0.4949841008616669,45.0,31.0,5.0,-0.047044683431353235,-0.028396084016848344,tr13-0538
-0.2408186271494704,0.22928947366416136,-0.05287653501963925,0.22928947366416136,0.22928947366416136,0.007827431784682315,0.006177131948723672,0.0036258833869745287,1160.0,0.4701081008136318,47.5,33.5,5.0,-0.0402912398344035,-0.030238333490999136,tr13-0538
-0.19226314122707072,0.23083758673433535,-0.13270952354562715,0.23083758673433535,0.23083758673433535,0.0,0.0,0.0,,0.4231007279614061,22.0,8.0,4.0,-0.022860260219176,-0.03695629512282792,tr13-0538
-0.269816385219166,0.23148151547458964,-0.07303673934189206,0.23148151547458964,0.23148151547458964,0.02089451597069926,0.011547925966700873,0.005954240232369297,1155.0,0.5012979006937557,47.0,33.0,5.0,-0.05482571246167873,-0.029430932743370226,tr13-0538
-0.20702225062154506,0.22329331918615625,-0.09914991685793008,0.22329331918615625,0.22329331918615625,0.0,0.0,0.0,,0.4303155698077013,19.0,9.0,5.0,0.03426835825057036,-0.03476833705544313,tr13-0538
-0.21117882131933927,0.2338901633235817,-0.1100424407443688,0.2338901633235817,0.2338901633235817,0.0,0.0,0.0,,0.445068984642921,23.0,9.0,5.0,-0.009085081954245464,-0.03871909782644706,tr13-0538
-0.2774332026733798,0.21470185821798748,-0.06627040151543516,0.21470185821798748,0.21470185821798748,0.016949174248674925,0.015677454994095744,0.0065091769470491286,1080.0,0.4921350608913672,46.0,32.0,5.0,-0.05106190458656993,-0.0024882413563471536,tr13-0538
-0.24149061533129185,0.2534934855303751,-0.05552542709307155,0.2534934855303751,0.2534934855303751,0.0,0.0,0.0,,0.4949841008616669,45.0,31.0,5.0,-0.047044683431353235,-0.028396084016848344,tr13-0538
-0.2582668455618184,0.1904272723116438,-0.05769865724291143,0.1904272723116438,0.1904272723116438,0.0,0.0,0.0,,0.4486941178734622,46.0,32.0,5.0,-0.05499347259126739,-0.0345448661329296,tr13-0538
-0.20769107872772624,0.2487339031236075,-0.12386546055709415,0.2487339031236075,0.2487339031236075,0.0010596565588180396,0.006094752809899837,0.0039565493102123464,1185.0,0.4564249818513337,21.5,9.0,5.0,0.009861603918083828,-0.027591139097047374,tr13-0538
-0.2843509332396868,0.2255624698582265,-0.07696462757913379,0.2255624698582265,0.2255624698582265,0.0,0.0,0.0,,0.5099134030979133,48.0,34.0,5.0,-0.061690706587394936,-0.02742133130829146,tr13-0538
-0.21810940378613208,0.2545749995662692,-0.11011983985752058,0.2545749995662692,0.2545749995662692,0.0033992602204480915,0.001888313236350414,0.009152022910982868,1245.0,0.4726844033524013,19.0,8.5,5.0,0.035969403898274514,-0.03512832316167802,tr13-0538
-0.2517214246310128,0.2401875336741253,-0.03544450526320657,0.2401875336741253,0.2401875336741253,0.013438866329609821,0.012816100224795207,0.022288123149180283,1035.0,0.491908958305138,48.0,27.5,5.0,-0.03990258825052291,-0.015488024077942971,tr13-0538
-0.2107679097006872,0.21064876495085988,-0.09912022506222988,0.21064876495085988,0.21064876495085988,0.013482614948026966,0.032756836949996204,0.044401463411582215,1120.0,0.4214166746515471,20.5,8.5,5.0,0.01142321871420983,-0.031777092956474136,tr13-0538
-0.1961183942371493,0.2517318754102053,-0.12889695459914638,0.2517318754102053,0.2517318754102053,0.0,0.0,0.0,,0.4478502696473545,22.0,8.0,5.0,-0.01677565061720224,-0.02487982213228566,tr13-0538
-0.2877792641656332,0.250461971439288,-0.0677135266336316,0.250461971439288,0.250461971439288,0.0,0.0,0.0,,0.5382412356049212,49.0,35.0,5.0,-0.05745808194400729,-0.017513009202342042,tr13-0538
-0.236835224227926,0.23811122148521804,-0.07398295876915413,0.23811122148521804,0.23811122148521804,0.012723963160453251,0.023537809143636984,0.008599132859373769,1105.0,0.474946445713144,32.5,20.5,5.0,0.008746433008019836,-0.02101928442583275,tr13-0538
-0.2472776808972575,0.2467847482342321,-0.05799694282023653,0.2467847482342321,0.2467847482342321,0.0,0.0,0.0,,0.4940624291314896,45.0,31.0,5.0,-0.0514868943330825,-0.0283178981739443,tr13-0538
-0.2574462258634944,0.20685639177316525,-0.035528443024650205,0.20685639177316525,0.20685639177316525,0.00788703847511518,0.007717020568415847,0.043021865887035035,1035.0,0.4643026176366596,31.5,20.0,4.5,0.023510034616623883,-0.019106045455268915,tr13-0538
-0.2409565323066274,0.2277000975603869,-0.028834846853718094,0.2277000975603869,0.2277000975603869,0.007965336941839346,0.007766508052498136,0.020415804778946618,1160.0,0.4686566298670143,46.0,26.0,5.0,-0.03720120289544563,-0.0324029082971386,tr13-0538
-0.2066314221689082,0.2426391503137077,-0.1199089112468818,0.2426391503137077,0.2426391503137077,0.0,0.0,0.0,,0.4492705724826159,20.0,9.0,5.0,0.034697472956641974,-0.02778656067853752,tr13-0538
-0.21208935071148416,0.25288832016849805,-0.11618251495077975,0.25288832016849805,0.25288832016849805,0.0,0.0,0.0,,0.4649776708799822,23.0,9.0,5.0,-0.00846077942693466,-0.03769621829537577,tr13-0538
-0.2837449926225927,0.230777427534512,-0.06707436588006492,0.230777427534512,0.230777427534512,0.004034271543040563,0.019684543904776017,0.0006391607535666741,1015.0,0.5145224201571046,47.0,33.0,5.0,-0.0505454950941212,-0.017341092409045758,tr13-0538
-0.2736240616956294,0.23530439322114124,-0.06588161304259216,0.23530439322114124,0.23530439322114124,0.01415520247000379,0.015157578218146756,0.001831913591039444,1130.0,0.5089284549167706,48.0,34.0,4.5,-0.05094267222336851,-0.02455736698883036,tr13-0538
-0.214710143565684,0.25646331280261964,-0.11927186276850345,0.25646331280261964,0.25646331280261964,0.0,0.0,0.0,,0.4711734563683036,20.0,9.0,5.0,0.028501016784135694,-0.03771099465207503,tr13-0538
-0.2907109011898653,0.2430294414412905,-0.07899097957426136,0.2430294414412905,0.2430294414412905,0.0,0.0,0.0,,0.5337403426311558,46.0,32.0,5.0,-0.06832397013669289,-0.024449531741515,tr13-0538
-0.21249207435206371,0.24291541814043816,-0.1163030547256106,0.24291541814043816,0.24291541814043816,0.0,0.0,0.0,,0.4554074924925019,23.0,9.0,5.0,-0.012184417707742869,-0.032104983310131965,tr13-0538
-0.20875073528654428,0.2548286559335073,-0.1278220098673065,0.2548286559335073,0.2548286559335073,0.0,0.0,0.0,,0.4635793912200517,23.0,9.0,5.0,-0.014974265120474319,-0.02739571751555724,tr13-0538
-0.2665608021124173,0.2346342576686604,-0.04762824757944092,0.2346342576686604,0.2346342576686604,0.017790131127269473,0.009071787810433815,0.029336379999692876,1095.0,0.5011950597810777,32.5,21.0,5.0,0.007966475964721786,-0.024810500527999397,tr13-0538
-0.24892186924846674,0.2199335895078888,-0.06708249910952277,0.2199335895078888,0.2199335895078888,0.0,0.0,0.0,,0.4688554587563555,48.0,34.0,5.0,-0.041327454786664566,-0.03441233374522545,tr13-0538
-0.1961183942371493,0.2517318754102053,-0.12889695459914638,0.2517318754102053,0.2517318754102053,0.0,0.0,0.0,,0.4478502696473545,22.0,8.0,5.0,-0.01677565061720224,-0.02487982213228566,tr13-0538
-0.23299119536478805,0.23546660561288504,-0.04925065163266472,0.23546660561288504,0.23546660561288504,0.0,0.0,0.0,,0.4684578009776731,46.0,32.0,5.0,-0.03720120289544563,-0.030393482849051745,tr13-0538
-0.2843509332396868,0.2255624698582265,-0.07696462757913379,0.2255624698582265,0.2255624698582265,0.0,0.0,0.0,,0.5099134030979133,48.0,34.0,5.0,-0.061690706587394936,-0.02742133130829146,tr13-0538
-0.2078084314429154,0.2326856369612978,-0.11525043651544364,0.2326856369612978,0.2326856369612978,0.0,0.0,0.0,,0.4404940684042132,22.0,8.0,4.0,-0.012037568399293307,-0.03890751913861175,tr13-0538
-0.2524601955036614,0.20732687989056536,-0.05829408002739346,0.20732687989056536,0.20732687989056536,0.0,0.0,0.0,,0.4597870753942268,44.0,30.0,4.0,-0.0507350901724235,-0.03308791112272856,tr13-0538
-0.2472776808972575,0.2467847482342321,-0.05799694282023653,0.2467847482342321,0.2467847482342321,0.0,0.0,0.0,,0.4940624291314896,45.0,31.0,5.0,-0.0514868943330825,-0.0283178981739443,tr13-0538
-0.2708300289096561,0.2385820307231577,-0.0650215009302802,0.2385820307231577,0.2385820307231577,0.02355234801239861,0.008202717511074459,0.007758077532204092,1175.0,0.5094120596328138,46.0,31.0,5.0,-0.055665021232245294,-0.02534252076851368,tr13-0538
-0.21117882131933927,0.2338901633235817,-0.1100424407443688,0.2338901633235817,0.2338901633235817,0.0,0.0,0.0,,0.445068984642921,23.0,9.0,5.0,-0.009085081954245464,-0.03871909782644706,tr13-0538
-0.20875073528654428,0.2548286559335073,-0.1278220098673065,0.2548286559335073,0.2548286559335073,0.0,0.0,0.0,,0.4635793912200517,23.0,9.0,5.0,-0.014974265120474319,-0.02739571751555724,tr13-0538
-0.23299119536478805,0.23546660561288504,-0.04925065163266472,0.23546660561288504,0.23546660561288504,0.0,0.0,0.0,,0.4684578009776731,46.0,32.0,5.0,-0.03720120289544563,-0.030393482849051745,tr13-0538
-0.20242764807315766,0.2497555251682675,-0.11926493003786325,0.2497555251682675,0.2497555251682675,0.00630925383600843,0.0019763502419378326,0.009632024561283113,1095.0,0.4521831732414252,19.5,8.0,4.5,0.01684607605419989,-0.02418195811892522,tr13-0538
-0.22118477988976395,0.2569334086776406,-0.08644298272171805,0.2569334086776406,0.2569334086776406,0.0,0.0,0.0,,0.4781181885674045,19.0,9.0,5.0,0.0669078271520914,-0.02854965997148653,tr13-0538
-0.2266466001607449,0.2699819380766988,-0.10271130211575716,0.2699819380766988,0.2699819380766988,0.0,0.0,0.0,,0.4966285382374437,19.0,9.0,5.0,0.05734756727702243,-0.030013695202151386,tr13-0538
-0.2439311395326568,0.21827724304383436,-0.06366434046547248,0.21827724304383436,0.21827724304383436,0.0070473759968335955,0.0110145874682432,0.004505437197103404,1015.0,0.4622083825764911,46.0,32.0,5.0,-0.053374619532944936,-0.011333735944744436,tr13-0538
-0.2907109011898653,0.2430294414412905,-0.07899097957426136,0.2430294414412905,0.2430294414412905,0.0,0.0,0.0,,0.5337403426311558,46.0,32.0,5.0,-0.06832397013669289,-0.024449531741515,tr13-0538
-0.2266466001607449,0.2699819380766988,-0.10271130211575716,0.2699819380766988,0.2699819380766988,0.0,0.0,0.0,,0.4966285382374437,19.0,9.0,5.0,0.05734756727702243,-0.030013695202151386,tr13-0538
-0.2943823769220547,0.2303793132120832,-0.07277957846248427,0.2303793132120832,0.2303793132120832,0.0,0.0,0.0,,0.5247616901341379,46.0,32.0,5.0,-0.055665021232245294,-0.022367143363083045,tr13-0538
-0.2797107210795521,0.211092883629736,-0.06643520512649825,0.211092883629736,0.211092883629736,0.0,0.0,0.0,,0.4908036047092881,45.0,31.0,5.0,-0.04363290824423511,-0.015165400973058444,tr13-0538
-0.22118477988976395,0.2569334086776406,-0.08644298272171805,0.2569334086776406,0.2569334086776406,0.0,0.0,0.0,,0.4781181885674045,19.0,9.0,5.0,0.0669078271520914,-0.02854965997148653,tr13-0538
-0.2066314221689082,0.2426391503137077,-0.1199089112468818,0.2426391503137077,0.2426391503137077,0.0,0.0,0.0,,0.4492705724826159,20.0,9.0,5.0,0.034697472956641974,-0.02778656067853752,tr13-0538
-0.2524601955036614,0.20732687989056536,-0.05829408002739346,0.20732687989056536,0.20732687989056536,0.0,0.0,0.0,,0.4597870753942268,44.0,30.0,4.0,-0.0507350901724235,-0.03308791112272856,tr13-0538
-0.2307249777308566,0.4709425896130408,-0.2950449991478566,0.4709425896130408,0.4709425896130408,0.013120809008176136,0.0062069455762572825,0.008223120514104787,885.0,0.7016675673438975,33.5,19.5,5.5,-0.1006474580453746,-0.01189608315739598,tr13-0220
-0.2533391420511094,0.5019667627155237,-0.3063850581975641,0.5019667627155237,0.5019667627155237,0.010770345796086558,0.01789396578807881,0.00973507276607688,890.0,0.7553059047666331,34.0,20.0,6.0,-0.12279061176391713,0.0021758185455759086,tr13-0220
-0.2440074287052043,0.5372873573237608,-0.3278229862772477,0.5372873573237608,0.5372873573237608,0.0014848920084777615,0.009111008456864744,0.004008046114905323,900.0,0.7812947860289651,34.0,20.0,5.5,-0.1308058217479664,0.004386682509054461,tr13-0220
-0.25622225431521806,0.5096180374416894,-0.306724541715513,0.5096180374416894,0.5096180374416894,0.01806211146611029,0.03919877725999338,0.0013361650104899705,895.0,0.7658402917569075,33.5,19.5,5.0,-0.11970765628476195,0.005125551571956506,tr13-0220
-0.2667387620537634,0.5126380769203154,-0.3121821608054773,0.5126380769203154,0.5126380769203154,0.020331696332195517,0.02679861099270691,0.01222563250185028,892.5,0.7793768389740787,41.333333333333336,27.33333333333333,12.666666666666664,-0.12993370653101782,-0.02449498827707044,tr13-0220
-0.2624008605964776,0.5502256705180621,-0.3122276935268536,0.5502256705180621,0.5502256705180621,0.004582560475621833,0.006491580631923621,0.006622729038837871,890.0,0.8126265311145398,33.5,19.5,5.5,-0.13930448816990387,0.007682767611403853,tr13-0220
-0.2284063598369466,0.4900199611549214,-0.3246982030436256,0.4900199611549214,0.4900199611549214,0.010835131163339172,0.03249263915857045,0.01710874442252561,880.0,0.718426320991868,34.0,20.0,5.0,-0.12458354329601043,0.008584984550366484,tr13-0220
-0.24433848935383826,0.5317078102732598,-0.31789844295716746,0.5317078102732598,0.5317078102732598,0.0016502719756277815,0.004574930145020917,0.0013155348624969698,895.0,0.776046299627098,33.5,19.5,5.5,-0.1312424840785622,0.012402805442343234,tr13-0220
-0.24288887736115586,0.4955203470241151,-0.3101078840770733,0.4955203470241151,0.4955203470241151,0.042436118230253485,0.017767934255842686,0.010344645426460422,875.0,0.7384092243852709,43.33333333333334,29.33333333333333,15.0,-0.1280836580785476,-0.0167569590551626,tr13-0220
-0.22270110214267508,0.5127553146511767,-0.29838716004196714,0.5127553146511767,0.5127553146511767,0.004184328527660833,0.011929409735233876,0.000291854321745999,885.0,0.7354564167938518,34.0,20.0,5.5,-0.10787759513624064,0.03476198019211663,tr13-0220
-0.214276079777105,0.5196695218115972,-0.323646454872609,0.5196695218115972,0.5196695218115972,0.006208560959823417,0.0016074590010254903,0.003032000638470117,890.0,0.7339456015887021,34.0,20.0,5.5,-0.12809325226832466,0.013348550504028344,tr13-0220
-0.2281927525719401,0.4910828566062823,-0.3069035947731591,0.4910828566062823,0.4910828566062823,0.02590548146600323,0.005064490566302732,0.003449927948679016,870.0,0.7192756091782224,58.5,44.5,30.5,-0.12012698494190595,0.024155119995818857,tr13-0220
-0.23950621084520365,0.5279232442704394,-0.3141854459884039,0.5279232442704394,0.5279232442704394,0.009472079347707107,0.004969566399306735,0.00245402720190302,890.0,0.7674294551156431,34.0,20.0,5.0,-0.1228974310511417,0.00819814740206236,tr13-0220
-0.22159229609431588,0.5125629542616599,-0.3199675349246449,0.5125629542616599,0.5125629542616599,0.016825082789353518,0.0014982913733460055,0.002964160064508725,880.0,0.7341552503559758,34.0,20.0,5.0,-0.1103482048444196,0.02515803130913644,tr13-0220
-0.2323371090273909,0.5344736907038592,-0.3022473288505115,0.5344736907038592,0.5344736907038592,0.0011265888739856874,0.002067540760659792,0.0067357761478384895,885.0,0.76681079973125,33.0,19.0,5.0,-0.13141084508985507,0.006094350067133907,tr13-0220
-0.2305823058266075,0.4963311219045263,-0.3155628137086465,0.4963311219045263,0.4963311219045263,0.01652244829929095,0.0240981400210572,0.0059794288393718855,885.0,0.7269134277311338,57.5,43.5,28.5,-0.12655860751785547,0.012768142094590677,tr13-0220
-0.2521299647276668,0.5363837891108629,-0.3102943644771794,0.5363837891108629,0.5363837891108629,0.002378814409277619,0.003777933317473614,0.011021831331919836,895.0,0.7885137538385298,33.5,19.5,5.0,-0.12680785596008534,0.007010689127541713,tr13-0220
-0.2282781535816914,0.4968765841710141,-0.32135464252336626,0.4968765841710141,0.4968765841710141,0.02280749818435486,0.03492762053950385,0.017765228236608862,890.0,0.7251547377527054,33.5,19.5,5.0,-0.15074716792336212,0.0028591014911474397,tr13-0220
-0.2230354255838982,0.5036386666472051,-0.3054767542469946,0.5036386666472051,0.5036386666472051,0.006028500287692806,0.01007692339936192,0.0012375723786536008,885.0,0.7266740922311034,34.0,20.0,5.0,-0.10128011187660974,0.0217572580974887,tr13-0220
-0.2348320754316009,0.5290276550916968,-0.3262317810873409,0.5290276550916968,0.5290276550916968,0.004388431653236574,0.00819386874726813,0.009791884440303072,895.0,0.7638597305232977,34.0,20.0,5.0,-0.1181595682799832,0.003484964211512485,tr13-0220
-0.2288938842177907,0.5016262996956968,-0.2924539227141958,0.5016262996956968,0.5016262996956968,0.011266994356969722,0.02109934393934265,0.007550718338519224,885.0,0.7305201839134876,34.0,20.0,6.0,-0.12587314604261934,0.021829126970290408,tr13-0220
-0.2384745468108045,0.5223341786628131,-0.3296580776461241,0.5223341786628131,0.5223341786628131,0.00841279571825973,0.0030393523793516013,0.0017705080013984964,900.0,0.7608087254736176,34.0,20.0,5.5,-0.13120228074211954,0.01012264122339366,tr13-0220
-0.2358743994800916,0.482783370067485,-0.3035950417044848,0.482783370067485,0.482783370067485,0.010616145517402614,0.002566926976804579,0.003257953079205511,890.0,0.7186577695475767,33.5,19.5,5.0,-0.1265772622062515,0.011337623532541915,tr13-0220
-0.2601474552883779,0.5348381116778808,-0.3292070775808276,0.5348381116778808,0.5348381116778808,0.006077935397909018,0.0005021588319649162,0.001917205776983621,915.0,0.7949855669662587,33.5,19.5,5.5,-0.13939016729975154,-0.010780470081504234,tr13-0220
-0.2939780418091815,0.4943450159456488,-0.3149077156090687,0.5164666943732471,0.4943450159456488,0.024028082827421502,0.027316820205386755,0.005996401547964731,902.5,0.7883230577548304,40.333333333333336,26.33333333333333,11.333333333333336,-0.11912896867023184,-0.03823681750950175,tr13-0220
-0.2524258355349046,0.5126589342783221,-0.3224833779810802,0.5126589342783221,0.5126589342783221,0.014695855751870155,0.022178184050461125,0.015339139369323268,890.0,0.7650847698132267,33.5,19.5,5.0,-0.1442933977060194,0.004732773379460395,tr13-0220
-0.2430591288963603,0.5197573324146798,-0.3051801595992186,0.5197573324146798,0.5197573324146798,0.006313576700077789,0.026086018603524885,0.004776228493518747,895.0,0.7628164613110401,33.0,19.0,5.0,-0.13322448873278506,0.006892249203511293,tr13-0220
-0.2475012423167425,0.5060001029381221,-0.3234674868455284,0.5060001029381221,0.5060001029381221,0.008715769945840945,0.022576444423747843,0.00398644287630584,895.0,0.7535013452548647,34.0,20.0,5.0,-0.12759562693009066,0.007994127094066166,tr13-0220
-0.24619815016624114,0.5065403861212839,-0.2647787606676971,0.5196065723761594,0.5065403861212839,0.007610814302427169,0.021257323739336212,0.06361963271591434,900.0,0.7527385362875251,53.0,30.66666666666667,18.33333333333333,-0.12878041908920507,0.0042211862497610894,tr13-0220
-0.23682791306060785,0.5009382486277864,-0.28866948933482894,0.5124818041713913,0.5009382486277864,0.02442392215268441,0.014538118181496675,0.02594031362261568,872.5,0.7377661616883943,58.5,35.333333333333336,22.0,-0.12012698494190595,0.02480881157517924,tr13-0220
-0.2527948589295108,0.5372099491900373,-0.3187051589072858,0.5372099491900373,0.5372099491900373,0.0034221533330726773,0.008633401828167353,0.008748770814548446,900.0,0.7900048081195481,33.5,19.5,5.0,-0.13855146730546808,0.0005367446129519146,tr13-0220
-0.2559948418804678,0.5145242307043084,-0.3057962581060244,0.5202696166691846,0.5145242307043084,0.0457676250457821,0.010056441008633005,0.010480756375808413,887.5,0.7705190725847761,42.333333333333336,28.33333333333333,13.666666666666664,-0.11314596384328275,-0.028904092134412807,tr13-0220
-0.23653261170904746,0.4802353383362869,-0.3100904597575864,0.4802353383362869,0.4802353383362869,0.0022528606618540674,0.003188320178087456,0.009390584211636131,890.0,0.7167679500453343,34.0,20.0,5.5,-0.12448576584361486,0.0200273208953744,tr13-0220
-0.2358743994800916,0.499755634687071,-0.3191407902156065,0.499755634687071,0.499755634687071,0.010616145517402614,0.019539191596390504,0.012287795431916132,890.0,0.7356300341671625,55.0,41.0,27.0,-0.13839546794328994,0.011337623532541915,tr13-0220
-0.24352411055191234,0.5240495873386021,-0.3139461053487203,0.5240495873386021,0.5240495873386021,0.003363231977151881,0.0013239437035625912,0.01394146429600529,895.0,0.7675736978905143,34.0,20.0,5.5,-0.12675884636580095,0.016789729128475348,tr13-0220
-0.2353912471131749,0.5011475646750624,-0.3134952150191324,0.5011475646750624,0.5011475646750624,0.048133352922397114,0.01482214807251797,0.009738253616621196,875.0,0.7365388117882373,43.33333333333334,29.33333333333333,15.333333333333336,-0.12425259105436474,-0.007337216836514443,tr13-0220
-0.2504184010422177,0.5322050302519536,-0.33021803328453714,0.5322050302519536,0.5322050302519536,0.000667250723828533,0.0004008255414357231,0.008901837475437963,900.0,0.7826234312941713,33.5,19.5,5.0,-0.13917741653847887,0.004223349623442776,tr13-0220
-0.25080676663142143,0.5154318869567793,-0.2899161036056661,0.5154318869567793,0.5154318869567793,0.003702012505522989,0.024729835471557268,0.009356429539593395,890.0,0.7662386535882008,33.5,19.5,5.0,-0.12224631626980305,0.012289918317511759,tr13-0220
-0.23414221647821426,0.5254685569427661,-0.311577111636343,0.5254685569427661,0.5254685569427661,0.005078290606623251,0.011752966896198924,0.004862785010694759,895.0,0.7596107734209803,34.0,20.0,5.0,-0.1063576826066512,0.009173172965874598,tr13-0220
-0.2372377659896585,0.492076032019508,-0.3037740848587284,0.492076032019508,0.492076032019508,0.0004922137933759814,0.001595281791646974,0.003370153753028543,890.0,0.7293137980091664,33.5,19.5,5.0,-0.12464489898824102,0.014200064344097438,tr13-0220
-0.23961794831607575,0.5084524698877246,-0.31921547748901874,0.5084524698877246,0.5084524698877246,0.05011462417781734,0.015917509981747253,0.0067376410111823475,885.0,0.7480704182038004,42.66666666666666,28.66666666666667,14.333333333333336,-0.12761449463299435,-0.008490286953782745,tr13-0220
-0.22816155856465134,0.5264177059343914,-0.3152626737731842,0.5264177059343914,0.5264177059343914,0.0030489615887538267,0.005988444008807936,0.006279568774834181,885.0,0.7545792644990428,33.5,19.5,5.0,-0.13718092271864446,0.007603621117962047,tr13-0220
-0.2533391420511094,0.5019667627155237,-0.3063850581975641,0.533129547142114,0.5019667627155237,0.010770345796086558,0.01789396578807881,0.00973507276607688,890.0,0.7553059047666331,34.0,20.0,6.0,-0.12279061176391713,0.0021758185455759086,tr13-0220
-0.2531124560361926,0.5396149257317389,-0.3303286850159213,0.5396149257317389,0.5396149257317389,0.013870965035906832,0.017102325418246966,0.01147826245022987,895.0,0.7927273817679314,33.5,19.5,5.0,-0.13437839562862508,0.006743292448474525,tr13-0220
-0.2549182902880296,0.5239669102778353,-0.3005471622542041,0.5239669102778353,0.5239669102778353,0.0029000098328261503,0.019767179608303376,0.005057802233811637,900.0,0.7788852005658649,34.0,20.0,5.5,-0.12875969142651045,0.007983815512148747,tr13-0220
-0.23543581916059064,0.5087863413784725,-0.2689980099475953,0.5087863413784725,0.5087863413784725,0.021195573485163176,0.033120644385573134,0.08688274275353823,895.0,0.7442221605390631,33.5,17.666666666666668,5.0,-0.13917741653847887,0.0028973753002249853,tr13-0220
-0.2622429581372548,0.5158041412500917,-0.2480076916249349,0.5226842965283539,0.5158041412500917,0.017029122000311845,0.03317979083381487,0.09447805320526556,895.0,0.7780470993873464,54.5,31.33333333333333,19.0,-0.12587997811105106,-7.440141238229322e-05,tr13-0220
-0.2997470234097233,0.5180814467165867,-0.3243822126640273,0.5332223659854436,0.5180814467165867,0.02911963712456441,0.02036693529064501,0.010540630767332224,910.0,0.81782847012631,39.333333333333336,25.33333333333333,10.666666666666666,-0.13335350630760742,-0.028986926023372037,tr13-0220
-0.2533819071500468,0.5087863413784725,-0.3213418269519439,0.5087863413784725,0.5087863413784725,0.040089710259961484,0.033120644385573134,0.014505259437307962,895.0,0.7621682485285192,41.0,27.0,12.333333333333336,-0.14157997896441954,-0.026609547293460368,tr13-0220
-0.24346549129503225,0.5282886063737572,-0.3206570917751136,0.5282886063737572,0.5282886063737572,0.0007772739168218218,0.007994134044523538,0.0040741836804431,900.0,0.7717540976687894,34.0,20.0,6.0,-0.13456644125260936,0.003497754350675089,tr13-0220
-0.2472414285730959,0.4944547650980916,-0.30389510049445523,0.4944547650980916,0.4944547650980916,0.02714860843395656,0.01985417667342971,0.017207753372456856,882.5,0.7416961936711873,42.333333333333336,29.0,14.0,-0.14689143171018848,-0.014273755275856162,tr13-0220
-0.2620236854169524,0.5149979916097392,-0.32034478308650616,0.5149979916097392,0.5149979916097392,0.030715142388325737,0.03238783667676555,0.011070531530306314,897.5,0.7770216770266916,44.5,26.66666666666667,12.333333333333336,-0.1308058217479664,-0.02045710043004609,tr13-0220
-0.24292345548622665,0.5145242307043084,-0.29272487171178324,0.5202696166691846,0.5145242307043084,0.027332433909635256,0.010056441008633005,0.008011229882589012,887.5,0.7574476861905349,48.0,28.33333333333333,14.666666666666664,-0.10787759513624064,-0.0057366639165980435,tr13-0220
-0.21311883281055974,0.4831332843715559,-0.3027961883878316,0.4831332843715559,0.4831332843715559,0.006516865661087154,0.0036374810108970312,0.0003672219254836351,870.0,0.6962521171821157,33.5,19.5,5.0,-0.12151039464931615,0.018900577745410117,tr13-0220
-0.2575958910184725,0.5168572500457072,-0.32052856119801976,0.5168572500457072,0.5168572500457072,0.004887245332778289,0.03199756336225562,0.003900248269988553,900.0,0.7744531410641796,33.5,19.5,5.0,-0.13472419528562024,-0.0021121991106788467,tr13-0220
-0.22478171654720636,0.495989969391273,-0.3230111468708263,0.495989969391273,0.495989969391273,0.005661927231158021,0.024843816953155656,0.013012518656817572,900.0,0.7207716859384794,34.0,20.0,5.5,-0.1304188489196521,0.0020426220995744763,tr13-0220
-0.21958622725160706,0.4963311219045263,-0.3155628137086465,0.4963311219045263,0.4963311219045263,0.005526369724290507,0.0240981400210572,0.0059794288393718855,885.0,0.7159173491561334,34.0,20.0,5.0,-0.12655860751785547,0.014361302842826553,tr13-0220
-0.28267728651284546,0.5409879804498721,-0.32208744483995283,0.5409879804498721,0.5409879804498721,0.043317750590776034,0.014098353863449925,0.014955592661617724,892.5,0.8236652669627175,44.5,27.0,12.666666666666664,-0.13930448816990387,-0.029327434674308192,tr13-0220
-0.21123879034677093,0.4777553534396767,-0.3039142980775492,0.4777553534396767,0.4777553534396767,0.005768134949434428,0.01580638980816651,0.0003248837907918189,885.0,0.6889941437864477,34.0,20.0,5.0,-0.12297400804359715,0.014399674441708815,tr13-0220
-0.23485729220311946,0.5016877907205132,-0.30947822761218113,0.5016877907205132,0.5016877907205132,0.0005775411559260647,0.024640772562313784,0.008778352066230816,900.0,0.7365450829236326,33.5,19.5,5.5,-0.12878041908920507,0.011101058832774431,tr13-0220
-0.22989069909527646,0.4952127476484906,-0.3206215179266396,0.4952127476484906,0.4952127476484906,0.02168910947456253,0.02103282927433484,0.006626630750468127,890.0,0.7251034467437671,33.5,19.5,5.0,-0.1289571970655597,0.0043869964308963505,tr13-0220
-0.23594053839252302,0.5238029471764164,-0.3092216238459133,0.5238029471764164,0.5238029471764164,0.002476840491146409,0.01273828428810253,0.0137100711432403,875.0,0.7597434855689393,33.5,19.5,5.0,-0.11695942539765207,0.01915053809505493,tr13-0220
-0.2518312390557751,0.5003023368816053,-0.2873745785627773,0.5186769460213271,0.5003023368816053,0.0037928828933940007,0.024864053153189958,0.023092921453131948,900.0,0.7521335759373803,46.0,26.66666666666667,13.666666666666664,-0.1265772622062515,0.03225667901759505,tr13-0220
-0.24350732096444225,0.5212870701028263,-0.3227523641777598,0.5212870701028263,0.5212870701028263,0.008072487605396722,0.005041493180000745,0.004495784499347899,900.0,0.7647943910672684,33.5,19.5,5.0,-0.13283388079921454,0.003212583564715139,tr13-0220
-0.25792169965468176,0.4963490746781479,-0.31587828307900234,0.4963490746781479,0.4963490746781479,0.030304616046624117,0.022936475786296377,0.011215458624464374,892.5,0.7542707743328295,42.0,28.0,13.333333333333336,-0.12528586906981634,-0.01338055800833512,tr13-0220
-0.27066530322718874,0.5184369099518028,-0.3227374546011425,0.5184369099518028,0.5184369099518028,0.02844881627734744,0.01986666985055009,0.012529508140867831,900.0,0.7891022131789915,39.66666666666666,26.33333333333333,11.666666666666664,-0.1546786281309845,-0.0298794297424364,tr13-0220
-0.23941311465255916,0.4949538554728105,-0.2406840514750296,0.4949538554728105,0.4949538554728105,0.010008997980558078,0.01733880540114127,0.11140726929603237,890.0,0.7343669701253696,55.0,31.66666666666667,19.666666666666668,-0.13839546794328994,0.015509853425457574,tr13-0220
-0.28267728651284546,0.5409879804498721,-0.32208744483995283,0.5409879804498721,0.5409879804498721,0.043317750590776034,0.014098353863449925,0.014955592661617724,892.5,0.8236652669627175,41.0,27.0,12.666666666666664,-0.13530781502948602,-0.029327434674308192,tr13-0220
-0.2403413397729171,0.4992978045242961,-0.3146016584336827,0.4992978045242961,0.4992978045242961,0.0021811969238094003,0.028878544342599958,0.009213281728659678,895.0,0.7396391442972132,33.5,19.5,5.0,-0.12587997811105106,0.009634680840874741,tr13-0220
-0.22542236618066336,0.4998951378449462,-0.31394734288443593,0.4998951378449462,0.4998951378449462,0.01882039903119073,0.02039933448428741,0.01078393257112073,880.0,0.7253175040256096,33.5,19.5,5.5,-0.13915915351168245,0.0027035252972236077,tr13-0220
-0.2502800324439816,0.5103452837770677,-0.3138134802145617,0.5103452837770677,0.5103452837770677,0.003789487446487341,0.024994986732778033,0.01347639158928235,910.0,0.7606253162210492,34.0,20.0,5.5,-0.12180789261642272,0.010116521116473131,tr13-0220
-0.2430940785602261,0.4963490746781479,-0.2604981958174865,0.4963490746781479,0.4963490746781479,0.009459877479089548,0.022936475786296377,0.0891114903347814,892.5,0.7394431532383741,34.0,18.0,5.333333333333333,-0.12759562693009066,0.012667865448034636,tr13-0220
-0.2422389208539609,0.4957716371966238,-0.3156494889716912,0.4957716371966238,0.4957716371966238,0.04409305051202005,0.028561062071757924,0.016598185953960495,887.5,0.7380105580505848,40.0,28.0,13.333333333333336,-0.1973545444297368,-0.03170812832788195,tr13-0220
-0.2515382621154271,0.5267709216702703,-0.2971209878369364,0.5267709216702703,0.5267709216702703,0.0025599719225162933,0.006121888999475854,0.014610430949564409,890.0,0.7783091837856974,33.5,19.5,5.0,-0.12863451031222112,0.02116424930021278,tr13-0220
-0.2521299647276668,0.5154318869567793,-0.2899161036056661,0.5363837891108629,0.5154318869567793,0.002378814409277619,0.024729835471557268,0.009356429539593395,890.0,0.7675618516844461,55.0,41.0,26.5,-0.12224631626980305,0.007010689127541713,tr13-0220
-0.20136003725752225,0.4910828566062823,-0.3069035947731591,0.4910828566062823,0.4910828566062823,0.0009272338484146576,0.005064490566302732,0.003449927948679016,870.0,0.6924428938638045,33.0,19.0,5.0,-0.12012698494190595,0.020123037875455545,tr13-0220
-0.2422389208539609,0.4957716371966238,-0.3156494889716912,0.4957716371966238,0.4957716371966238,0.04409305051202005,0.028561062071757924,0.016598185953960495,887.5,0.7380105580505848,42.0,28.0,13.333333333333336,-0.1336857493725392,-0.03170812832788195,tr13-0220
-0.2523634630704489,0.4945297086764917,-0.30605883647421184,0.4945297086764917,0.4945297086764917,0.00034518261524538185,0.00967002199304018,0.010569476453819393,885.0,0.7468931717469405,34.0,20.0,5.0,-0.12593514275624149,0.005059197462825031,tr13-0220
-0.23905938708671434,0.5040937982282688,-0.2909613126002846,0.5167317845629213,0.5040937982282688,0.023385024612039475,0.015649843808890538,0.013652202216564609,875.0,0.7431531853149832,50.5,30.33333333333333,16.333333333333332,-0.10435842112873106,0.010712113416152285,tr13-0220
-0.2281927525719401,0.5083981899216897,-0.29298211185592604,0.5083981899216897,0.5083981899216897,0.02590548146600323,0.012250842749104708,0.010471554968554037,875.0,0.7365909424936299,33.0,19.0,5.0,-0.12357611407718702,0.024155119995818857,tr13-0220
-0.25788577435104393,0.5266706814320107,-0.30914211756339216,0.5337845104503061,0.5266706814320107,0.036142976283561015,0.011163499627107592,0.01119479088682444,880.0,0.7845564557830546,48.0,29.0,14.666666666666664,-0.11695942539765207,-0.016822062588319267,tr13-0220
-0.23277224786502254,0.5046244798916629,-0.24706940716125256,0.5070252690433906,0.5046244798916629,0.01817190945272097,0.021727433024248868,0.10415901698599866,885.0,0.7373967277566856,33.5,17.333333333333332,5.0,-0.1289571970655597,0.012536730004474831,tr13-0220
-0.20425016111319455,0.5036476734263011,-0.3185159891164586,0.5036476734263011,0.5036476734263011,0.003817357704087005,0.01762930738632154,0.00816246639462051,880.0,0.7078978345394957,33.5,19.5,5.5,-0.12958039132080812,0.01997202599516592,tr13-0220
-0.23177999500153676,0.4923301010622949,-0.3134017182203822,0.4923301010622949,0.4923301010622949,0.01420876632792929,0.03480277906594395,0.005812259599282221,890.0,0.7241100960638316,33.5,19.5,5.0,-0.12821744421614334,0.017683553275821634,tr13-0220
-0.22368503570363216,0.5213733935984911,-0.30935487997718003,0.5213733935984911,0.5213733935984911,0.003200394966703755,0.003311330787919453,0.011259574256958893,890.0,0.7450584293021233,34.0,20.0,5.5,-0.11832685824233195,0.012917648938130905,tr13-0220
-0.2462986873437508,0.5009382486277864,-0.2987725821445634,0.5124818041713913,0.5009382486277864,0.03321213223977669,0.014538118181496675,0.011838978051341669,872.5,0.7472369359715371,43.66666666666666,29.66666666666667,15.666666666666664,-0.12460306917223594,-0.0053878469976989,tr13-0220
-0.2626570546948836,0.4955997466518002,-0.3128124997311949,0.5099013815746177,0.4955997466518002,0.039317629104362165,0.02188394410239996,0.008579494028966102,895.0,0.7582568013466838,41.333333333333336,27.33333333333333,13.0,-0.12862200550545735,-0.022987154821591988,tr13-0220
-0.24749141823823964,0.5213412560032017,-0.31087728503828965,0.5213412560032017,0.5213412560032017,0.04724632159547828,0.0027040722453509805,0.009442145376210787,890.0,0.7688326742414412,46.5,28.0,14.0,-0.11832685824233195,-0.011909388479191787,tr13-0220
-0.2641925904619851,0.5165630635043752,-0.29182182362231784,0.5288115513367623,0.5165630635043752,0.018017575381676344,0.015276968065838998,0.008706023578136301,882.5,0.7807556539663603,47.5,28.33333333333333,14.666666666666664,-0.12357611407718702,-0.000910705731730941,tr13-0220
-0.2525974698294321,0.491466250609837,-0.2983021578808001,0.5086594143421443,0.491466250609837,0.03476132980180928,0.022433042696758998,0.010315648666609157,882.5,0.7440637204392692,41.333333333333336,29.0,15.0,-0.17270385163668092,-0.01319169070881262,tr13-0220
-0.27934425879313857,0.5097036109104884,-0.3176620603208392,0.5097036109104884,0.5097036109104884,0.014952602798853075,0.02028925038827592,0.005583547520427945,910.0,0.7890478697036271,34.0,20.0,5.0,-0.12226570155520612,0.0015513819247257147,tr13-0220
-0.2592884532257737,0.5297922144444339,-0.30867896674968043,0.5297922144444339,0.5297922144444339,0.044090413776719545,0.006832441471864239,0.010629160472080856,885.0,0.7890806676702077,42.0,28.0,13.666666666666664,-0.13169733968427294,-0.02646000700332593,tr13-0220
-0.25397763729311434,0.4806111660583714,-0.3014710047986964,0.4806111660583714,0.4806111660583714,0.010131850554081612,0.003461630869073362,0.014649126164944596,885.0,0.7345888033514858,33.5,19.5,5.5,-0.11232585918965342,0.011844976505281556,tr13-0220
-0.2190762360433306,0.4831332843715559,-0.3027961883878316,0.4937983351491978,0.4831332843715559,0.0005594624283163374,0.0036374810108970312,0.0003672219254836351,870.0,0.7022095204148865,60.0,46.0,31.5,-0.12151039464931615,0.04039561299015283,tr13-0220
-0.2539355767072016,0.5226970707304098,-0.2428129327233317,0.5343321485806481,0.5226970707304098,0.0032264371041011157,0.021701099060928698,0.08828674994277583,897.5,0.7766326474376116,53.5,30.66666666666667,18.666666666666668,-0.13322448873278506,-0.0003258520735803541,tr13-0220
-0.25068493814125503,0.5165630635043752,-0.2155713472521368,0.5288115513367623,0.5165630635043752,0.0024135646747445788,0.015276968065838998,0.1098087212477201,882.5,0.7672480016456301,56.5,32.333333333333336,20.666666666666668,-0.12357611407718702,0.019513600822317043,tr13-0220
-0.2573619625284875,0.4949538554728105,-0.3128728896854974,0.4949538554728105,0.4949538554728105,0.03160009116994269,0.01733880540114127,0.013387796625849055,890.0,0.752315818001298,41.0,27.33333333333333,13.0,-0.1378400810495858,-0.02036510897626403,tr13-0220
-0.2440305584843525,0.533129547142114,-0.3142405089118201,0.533129547142114,0.533129547142114,0.0014617622293296025,0.013268818638511535,0.01759052348033291,895.0,0.7771601056264664,34.0,20.0,6.0,-0.1295880547182621,-0.0030621345047228033,tr13-0220
-0.2716452635828501,0.5095420434778527,-0.3042651383577057,0.5244909019064563,0.5095420434778527,0.039864011110276695,0.020545223508882337,0.01780501413198226,890.0,0.7811873070607028,39.66666666666666,27.66666666666667,13.333333333333336,-0.1866021549982414,-0.028111928010157442,tr13-0220
-0.25449870898915605,0.4765210932690911,-0.3107387694929695,0.4765210932690911,0.4765210932690911,0.009892947005129424,0.012893267253121371,0.0013397433074417153,895.0,0.7310198022582471,34.0,20.0,5.0,-0.11610687520964465,-0.002958223128239505,tr13-0220
-0.26841996226744896,0.5069809808476236,-0.31446211484514497,0.5332327869882668,0.5069809808476236,0.034082990974584844,0.03516796142480972,0.00497699271011944,892.5,0.7754009431150726,41.66666666666666,27.66666666666667,13.333333333333336,-0.12811252866683162,-0.024822947725743758,tr13-0220
-0.2554155763351568,0.4989818894309428,-0.3202616547716696,0.4989818894309428,0.4989818894309428,0.01080981435113014,0.03535406341497305,0.010862628586141706,910.0,0.7543974657660996,33.5,19.5,5.0,-0.12822640104594096,-0.011948703682461828,tr13-0220
-0.2250449256797958,0.4897420989753069,-0.23892126028168206,0.5069976411136591,0.4897420989753069,0.005683724578416848,0.021305526112185943,0.09191441829326012,885.0,0.7147870246551027,57.0,33.0,20.33333333333333,-0.12297400804359715,0.019491703386775524,tr13-0220
-0.26838375106628953,0.5488358140548228,-0.3162447580970057,0.5488358140548228,0.5488358140548228,0.005900614715038749,1.899935313992573e-05,0.00818405137100267,900.0,0.8172195651211123,33.5,19.5,5.0,-0.12808595780068255,-0.005122381813558883,tr13-0220
-0.251336047558214,0.5120243387027245,-0.3148258646211808,0.5120243387027245,0.5120243387027245,0.039738848056655146,0.02390934807067195,0.008892266416172278,890.0,0.7633603862609384,40.66666666666666,27.66666666666667,13.666666666666664,-0.16374582057220696,-0.01456531299709791,tr13-0220
-0.27066530322718874,0.5184369099518028,-0.3227374546011425,0.5184369099518028,0.5184369099518028,0.02844881627734744,0.01986666985055009,0.012529508140867831,900.0,0.7891022131789915,40.333333333333336,26.33333333333333,11.666666666666664,-0.13791998366781502,-0.0298794297424364,tr13-0220
-0.2497536620508175,0.491466250609837,-0.2954583501021854,0.5086594143421443,0.491466250609837,0.030901306936435433,0.022433042696758998,0.010625630475497895,882.5,0.7412199126606546,48.0,29.0,15.333333333333336,-0.13140030727458613,-0.0014680307947247118,tr13-0220
-0.26505750618945817,0.5224646669868885,-0.3153718785480687,0.5224646669868885,0.5224646669868885,0.038216369265700975,0.002488472690095984,0.011560360846868943,897.5,0.7875221731763467,45.0,27.0,13.0,-0.12675884636580095,-0.01376516451985415,tr13-0220
-0.2276600025276169,0.499755634687071,-0.3191407902156065,0.499755634687071,0.499755634687071,0.0024017485649278913,0.019539191596390504,0.012287795431916132,890.0,0.7274156372146878,33.5,19.5,5.5,-0.13839546794328994,0.0053388968246718205,tr13-0220
-0.2456104954834581,0.4890308245530182,-0.3014237970464588,0.4961408584047795,0.4890308245530182,0.0375278898093732,0.008853406451023024,0.0019638781232009907,867.5,0.7346413200364763,42.66666666666666,30.66666666666667,16.0,-0.1728597430459736,0.000996795887314254,tr13-0220
-0.2716026476724516,0.5165630635043752,-0.2992318808327843,0.5288115513367623,0.5165630635043752,0.02845220740805985,0.015276968065838998,0.012297216494034969,882.5,0.7881657111768269,42.333333333333336,28.33333333333333,14.0,-0.12362200371530675,-0.02089571550976289,tr13-0220
-0.26946961230110017,0.5348836905685521,-0.2949004800729178,0.5523895307287033,0.5348836905685521,0.010674006198784784,0.022334870575168298,0.008990232566725508,895.0,0.8043533028696522,46.5,27.33333333333333,13.666666666666664,-0.12875969142651045,-0.0036378246454395282,tr13-0220
-0.2557366874973828,0.5126380769203154,-0.24155349405096696,0.5126380769203154,0.5126380769203154,0.004778778096351968,0.02679861099270691,0.11173300207551944,892.5,0.7683747644176981,33.5,17.333333333333332,5.0,-0.13472419528562024,0.003449312893197396,tr13-0220
-0.2305823058266075,0.4814675166843456,-0.2950715294676737,0.4814675166843456,0.4814675166843456,0.01652244829929095,0.009234534800876493,0.01451185540160091,880.0,0.7120498225109531,34.0,20.0,5.0,-0.11748470391428605,0.012768142094590677,tr13-0220
-0.273297383120286,0.5167772970705576,-0.31486704959576045,0.5375524866882845,0.5167772970705576,0.04140674519629665,0.02553755137400424,0.014389907944992569,892.5,0.7900746801908435,41.66666666666666,27.66666666666667,13.666666666666664,-0.12553571395013144,-0.03503757305931361,tr13-0220
-0.2571698803523331,0.5224646669868885,-0.30748425271094365,0.5224646669868885,0.5224646669868885,0.0273169254063506,0.002488472690095984,0.014597512236766318,897.5,0.7796345473392217,45.5,27.0,13.333333333333336,-0.12675884636580095,-0.010245774258593536,tr13-0220
-0.21837333958843466,0.4758365540972358,-0.29745091629484266,0.4758365540972358,0.4758365540972358,0.0007464497276136461,0.00469040165911841,0.012547711919166094,880.0,0.6942098936856704,34.0,20.0,6.0,-0.13140030727458613,0.009484143038696376,tr13-0220
-0.26838375106628953,0.5096180374416894,-0.306724541715513,0.5488358140548228,0.5096180374416894,0.005900614715038749,0.03919877725999338,0.0013361650104899705,895.0,0.7780017885079791,54.0,40.0,25.5,-0.11970765628476195,-0.005122381813558883,tr13-0220
-0.27369197692624114,0.4957927131280327,-0.3175339407812501,0.4957927131280327,0.4957927131280327,0.02831978110509228,0.0292166885691844,0.009671882637868476,902.5,0.7694846900542739,40.0,26.0,11.333333333333336,-0.12527034987029595,-0.03482885647855958,tr13-0220
-0.2190762360433306,0.4937983351491978,-0.3005539904130305,0.4937983351491978,0.4937983351491978,0.0005594624283163374,0.0070275697667449575,0.0018749760493174121,865.0,0.7128745711925285,34.0,20.0,5.0,-0.10435842112873106,0.04039561299015283,tr13-0220
-1.2988280046027485,1.4306259052449175,-0.22318799074219084,1.4306259052449175,1.4306259052449175,0.0,0.0,0.0,,2.729453909847666,47.0,33.0,6.0,-0.19734819190318476,-0.03589826016514696,tr12-0448
-1.419776283889323,1.4331885143166745,-0.2249295506832947,1.4331885143166745,1.4331885143166745,0.0,0.0,0.0,,2.8529647982059974,44.0,30.0,5.0,-0.19782106903656066,-0.11254834024086068,tr12-0448
-1.2636296110402023,1.5093630451177888,-0.2263441464652625,1.5093630451177888,1.5093630451177888,0.06970473663909738,0.02527732704411867,0.03360845432439466,1325.0,2.7729926561579905,105.0,91.0,5.5,-0.18478229125264836,-0.00583223607897021,tr12-0448
-1.3068809837852502,1.5275373364071383,-0.19158068058816854,1.5275373364071383,1.5275373364071383,0.03452255820904493,0.04147028722655066,0.02576538897528113,1160.0,2.8344183201923885,76.0,62.0,5.5,-0.15660224483448326,-0.03778698680643835,tr12-0448
-1.2850489259297404,1.5237650273301517,-0.2407130556214393,1.5237650273301517,1.5237650273301517,0.0,0.0,0.0,,2.8088139532598917,105.0,91.0,6.0,-0.20374216931364647,0.005650901246146507,tr12-0448
-1.2363445491695908,1.5026171497002452,-0.2398869191719187,1.5026171497002452,1.5026171497002452,0.00760025999199887,0.01233899284904627,0.0008075346448217362,1200.0,2.7389616988698355,105.5,91.5,5.5,-0.19707782692454506,-0.009505770635217192,tr12-0448
-1.2498990373923906,1.5262908309355734,-0.2362174242441327,1.5262908309355734,1.5262908309355734,0.037586025034636365,0.003159510406794963,0.005988124687628382,1120.0,2.776189868327964,78.5,64.5,6.0,-0.17464647078155884,-0.0034109504877195586,tr12-0448
-1.4312811102570508,1.362360302082018,-0.28164076900008245,1.362360302082018,1.362360302082018,0.03559677447182519,0.05133660328422252,0.016678637855536416,945.0,2.7936414123390687,45.5,31.5,5.0,-0.2422405165014095,-0.139104199370241,tr12-0448
-1.4545206769851529,1.3230025367524862,-0.2686580413449505,1.3230025367524862,1.3230025367524862,0.015087405474158657,0.016230699901708,0.005345565209915609,1000.0,2.777523213737639,43.5,29.5,5.0,-0.23799243676778656,-0.17815125155777806,tr12-0448
-1.4652521264456608,1.3635883079455289,-0.31782795369666395,1.3635883079455289,1.3635883079455289,0.004907924265852515,0.03486464459161731,0.025810158578034648,930.0,2.8288404343911897,43.5,29.5,5.0,-0.28548801865064444,-0.1696387309628195,tr12-0448
-1.4758972074321803,1.363514294223736,-0.32919784653723144,1.363514294223736,1.363514294223736,0.03842126905643828,0.022561900581600125,0.040907506838926584,1005.0,2.839411501655916,44.0,30.0,5.5,-0.29680968556510057,-0.1727899278305953,tr12-0448
-1.384411788076208,1.4662817990966763,-0.23523345756371497,1.4662817990966763,1.4662817990966763,0.027364869111485723,0.05607624054064087,0.04656094441048414,965.0,2.850693587172884,74.5,60.5,5.0,-0.2025762253447722,-0.09667581311843708,tr12-0448
-1.2394370819346598,1.5828700127477475,-0.2265137593909722,1.5828700127477475,1.5828700127477475,0.0,0.0,0.0,,2.822307094682408,105.0,91.0,5.0,-0.1850468487335456,-0.007651460804473686,tr12-0448
-1.2763258693035782,1.499349061751574,-0.24253241513045815,1.499349061751574,1.499349061751574,0.0,0.0,0.0,,2.7756749310551516,105.0,91.0,6.0,-0.19751129617916374,0.016839508179925692,tr12-0448
-1.271752865048801,1.5269794180650296,-0.22587497360825606,1.5269794180650296,1.5269794180650296,0.006201232020258463,0.008340630236566282,0.015980734302995167,1300.0,2.7987322831138304,74.0,62.5,5.5,-0.2015850623694728,0.024983914742984743,tr12-0448
-1.2562586299277565,1.5374055141931964,-0.24494849816329295,1.5374055141931964,1.5374055141931964,0.0,0.0,0.0,,2.793664144120953,105.0,91.0,6.0,-0.20800766088740436,0.017366141778103483,tr12-0448
-1.2578085190310653,1.5401598667953795,-0.2294751171109981,1.5401598667953795,1.5401598667953795,0.008780691110382044,0.030651760159051362,0.01687952470685873,1290.0,2.7979683858264446,77.5,63.5,6.0,-0.19457493342074836,0.023626867266505838,tr12-0448
-1.2335032308390383,1.5591208148304312,-0.2428784532736956,1.5591208148304312,1.5591208148304312,0.0,0.0,0.0,,2.792624045669469,107.0,93.0,6.0,-0.18833866870313715,0.011457814421168777,tr12-0448
-1.2264612458220938,1.5286305611464654,-0.2464613297583804,1.5286305611464654,1.5286305611464654,0.014675063933377919,0.0145596702409988,0.001489129923012325,1280.0,2.7550918069685597,103.5,91.5,5.5,-0.22217841530836266,0.02231274705118556,tr12-0448
-1.312974655914458,1.4796775121367365,-0.21302688914419488,1.4796775121367365,1.4796775121367365,0.01988123799566044,0.03116642173917616,0.025954473049489654,1090.0,2.7926521680511938,105.0,61.0,5.0,-0.19955882005951092,-0.035991886749389884,tr12-0448
-1.427222721171982,1.4477504368521281,-0.052399070723275695,1.4477504368521281,1.4477504368521281,0.0305165997325908,0.0017747565931577336,0.1948065791823008,1085.0,2.8749731580241096,44.0,23.5,5.5,-0.21428068114628526,-0.1184858125327322,tr12-0448
-1.3606664577839267,1.4240410643290566,-0.18775747018863936,1.4240410643290566,1.4240410643290566,0.0,0.0,0.0,,2.7847075221129827,45.0,31.0,6.0,-0.1624313643571897,-0.10137914339317687,tr12-0448
-1.3473715087368912,1.4851695503639204,-0.19311182482654812,1.4851695503639204,1.4851695503639204,0.01809909515442321,0.015620395881072781,0.006211088555262798,1105.0,2.8325410591008118,106.0,92.0,6.0,-0.1465459958780853,-0.07559167720540996,tr12-0448
-1.4692555663825786,1.3971005464495598,-0.2977316421766605,1.3971005464495598,1.3971005464495598,0.03373463850303138,0.037280939882692536,0.034795663499411045,955.0,2.8663561128321384,43.5,29.5,6.0,-0.27408463261868554,-0.14127864352519,tr12-0448
-1.4186386576382255,1.4110368953815675,-0.22282245879360515,1.4110368953815675,1.4110368953815675,0.021015221605332316,0.009749814385073607,0.011162785093196098,1040.0,2.829675553019793,45.5,31.5,6.0,-0.18486398987353567,-0.15164083978966866,tr12-0448
-1.4586405228996717,1.4084785803135214,-0.2568445098625177,1.4084785803135214,1.4084785803135214,0.015866970226663724,0.0005170072971708572,0.047415885629895516,915.0,2.8671191032131933,43.5,29.5,6.0,-0.2270569069114737,-0.13946967686879924,tr12-0448
-1.3808212064903354,1.445192227009766,-0.2192009635059628,1.445192227009766,1.445192227009766,0.002707553976807775,0.02332955205662224,0.001528597369018267,1035.0,2.8260134335001017,44.0,30.0,5.5,-0.1923014988291552,-0.12422478865436665,tr12-0448
-1.3552496595101051,1.4534142772897978,-0.24534204840039425,1.4534142772897978,1.4534142772897978,0.03799687371447191,0.07273027230731642,0.03927006607473206,920.0,2.8086639367999036,75.5,61.5,5.5,-0.2098151707644718,-0.08474858455134822,tr12-0448
-1.4633358670448515,1.3741705525831662,-0.3389757142781548,1.3741705525831662,1.3741705525831662,0.037298545195460935,0.03631695263966861,0.019214047001522155,905.0,2.837506419628018,44.0,30.0,6.0,-0.3085824363423679,-0.15680252250486887,tr12-0448
-1.2655516330285426,1.535320048301596,-0.24589695278007964,1.535320048301596,1.535320048301596,0.0,0.0,0.0,,2.8008716813301384,105.0,91.0,6.0,-0.20450801547238484,0.029860245274622155,tr12-0448
-1.1939248744011048,1.5346403721619075,-0.25995260078965715,1.5346403721619075,1.5346403721619075,0.0,0.0,0.0,,2.7285652465630124,105.0,91.0,6.0,-0.21472624604666887,0.06503686623433685,tr12-0448
-1.2326587652968406,1.540281718639957,-0.25339010056474776,1.540281718639957,1.540281718639957,0.0,0.0,0.0,,2.7729404839367984,104.0,90.0,5.0,-0.21480149385640712,0.05078305093957677,tr12-0448
-1.4758972074321803,1.363514294223736,-0.1450045794576581,1.363514294223736,1.363514294223736,0.03842126905643828,0.022561900581600125,0.22510077391849992,1005.0,2.839411501655916,44.0,23.0,5.5,-0.34269873930297634,-0.1727899278305953,tr12-0448
-1.3415846991061262,1.4715736233543044,-0.1561023900262059,1.4715736233543044,1.4715736233543044,0.05409963667909934,0.057876717988063923,0.08610315890555514,980.0,2.8131583224604304,50.0,27.5,5.5,-0.1747146700034692,-0.0809924783022834,tr12-0448
-1.4263105728199317,1.4149121239847473,-0.2609663808146789,1.4149121239847473,1.4149121239847473,0.04819692030640399,0.006950550968396696,0.04329401467773436,1105.0,2.8412226968046785,44.0,30.0,6.0,-0.23180409270443,-0.13335070461831686,tr12-0448
-1.3765553157843111,1.4586371161951723,-0.19089610100588236,1.4586371161951723,1.4586371161951723,0.04322096810501175,0.025448601878497845,0.03403344967741237,1115.0,2.8351924319794835,44.0,28.5,5.0,-0.19782106903656066,-0.09462483931656898,tr12-0448
-1.2676642081977,1.5103537106712477,0.06635604094117761,1.5103537106712477,1.5103537106712477,0.07373933379659514,0.024286661490659944,0.32630864173083474,1125.0,2.7780179188689478,105.0,52.0,6.0,-0.21472624604666887,0.007320465766715165,tr12-0448
-1.312974655914458,1.4796775121367365,-0.22606058587952246,1.4796775121367365,1.4796775121367365,0.01988123799566044,0.03116642173917616,0.01292077631416208,1090.0,2.7926521680511938,105.5,91.5,5.0,-0.1809776076255604,-0.035991886749389884,tr12-0448
-1.2500462204902427,1.5343144607333796,-0.21465522543253612,1.5343144607333796,1.5343144607333796,0.016542989651204487,0.024806354097051564,0.031219436622953005,1260.0,2.7843606812236232,105.0,60.0,6.0,-0.20904392662631247,0.016430783238984878,tr12-0448
-1.3835287604671431,1.4685217790663885,-0.22072956087498105,1.4685217790663885,1.4685217790663885,0.0,0.0,0.0,,2.852050539533532,44.0,30.0,5.0,-0.19379302688007755,-0.12492354252951113,tr12-0448
-1.3952976074073458,1.4490181419214228,-0.23017272973546846,1.4490181419214228,1.4490181419214228,0.062441713497227276,0.0005070515238628781,0.017032920170108073,990.0,2.8443157493287687,75.0,61.0,5.0,-0.18833853816894755,-0.09505714621475778,tr12-0448
-1.3630685308376205,1.446795109405952,-0.18732910322996235,1.446795109405952,1.446795109405952,0.002402073053693776,0.02275404507689549,0.00042836695867701214,1090.0,2.8098636402435724,75.5,61.5,6.0,-0.15159970054427624,-0.09422255478190182,tr12-0448
-1.4547966611112535,1.3688430945956702,-0.2776651356268321,1.3688430945956702,1.3688430945956702,0.015363389600259625,0.02960985794147608,0.014352659491797204,955.0,2.8236397557069237,43.0,29.0,5.0,-0.2463571548322648,-0.1714696203884768,tr12-0448
-1.2562586299277565,1.5374055141931964,-0.24494849816329295,1.5374055141931964,1.5374055141931964,0.0,0.0,0.0,,2.793664144120953,105.0,91.0,6.0,-0.20800766088740436,0.017366141778103483,tr12-0448
-1.2524397999037569,1.5124574123906895,-0.2419767810145263,1.5124574123906895,1.5124574123906895,0.04065361801504086,0.0016134785147771116,0.0029954188208417692,1225.0,2.7648972122944464,105.5,91.5,5.5,-0.20140063721419352,0.006850586740167897,tr12-0448
-1.3765553157843111,1.4586371161951723,-0.07672488824623573,1.4586371161951723,1.4586371161951723,0.04322096810501175,0.025448601878497845,0.148204662437059,1115.0,2.8351924319794835,44.0,24.0,5.0,-0.19782106903656066,-0.09462483931656898,tr12-0448
-1.4652521264456608,1.3635883079455289,-0.3027295016584223,1.3635883079455289,1.3635883079455289,0.004907924265852515,0.03486464459161731,0.010711706539792977,930.0,2.8288404343911897,43.0,27.0,5.0,-0.25683106164806063,-0.1696387309628195,tr12-0448
-1.3256068695611771,1.4965377856518916,-0.2128738931871711,1.4965377856518916,1.4965377856518916,0.08616978762651684,0.0863322270958562,0.06892050878702803,1200.0,2.8221446552130685,44.0,29.0,5.0,-0.2544011637757416,-0.06461695471847455,tr12-0448
-1.2544923173002094,1.5198153901957656,0.07856801237713018,1.5198153901957656,1.5198153901957656,0.021833552003368784,0.020466328444191717,0.33195811294187794,1265.0,2.774307707495975,104.0,51.5,5.5,-0.21480149385640712,0.03381127955975123,tr12-0448
-1.2490278279206832,1.5708116269544308,-0.24635464181785685,1.5708116269544308,1.5708116269544308,0.0,0.0,0.0,,2.819839454875114,106.0,92.0,6.0,-0.19954921529169367,0.02584998247621069,tr12-0448
-1.2524397999037569,1.5124574123906895,-0.2419767810145263,1.5124574123906895,1.5124574123906895,0.04065361801504086,0.0016134785147771116,0.0029954188208417692,1225.0,2.7648972122944464,105.5,91.5,5.5,-0.20140063721419352,0.029263978790026395,tr12-0448
-1.25264322892422,1.5541085705738136,-0.021376378599048017,1.5541085705738136,1.5541085705738136,0.0036154010035366335,0.0167030563806172,0.22357211956424491,1295.0,2.8067517994980333,105.0,54.0,6.0,-0.20800766088740436,0.021608062127157084,tr12-0448
-1.384411788076208,1.4662817990966763,-0.1304271041581193,1.4662817990966763,1.4662817990966763,0.027364869111485723,0.05607624054064087,0.05824540899511156,965.0,2.850693587172884,105.0,55.0,5.0,-0.15075128691380274,-0.09667581311843708,tr12-0448
-1.3825194255065805,1.4506280398319518,-0.21192283853834404,1.4506280398319518,1.4506280398319518,0.037256858382742515,0.0174395255152775,0.013006712144950652,1030.0,2.8331474653385325,74.5,60.5,5.0,-0.17465123932665755,-0.0936858715464611,tr12-0448
-1.384411788076208,1.4662817990966763,-0.0246538009549392,1.4662817990966763,1.4662817990966763,0.027364869111485723,0.05607624054064087,0.16401871219829167,965.0,2.850693587172884,105.0,53.5,5.0,-0.15075128691380274,-0.09667581311843708,tr12-0448
-1.2763258693035782,1.499349061751574,-0.24253241513045815,1.499349061751574,1.499349061751574,0.0,0.0,0.0,,2.7756749310551516,105.0,91.0,6.0,-0.19751129617916374,0.016839508179925692,tr12-0448
-1.427222721171982,1.4477504368521281,-0.2284217642186722,1.4477504368521281,1.4477504368521281,0.0305165997325908,0.0017747565931577336,0.018783885686904308,1085.0,2.8749731580241096,45.5,31.5,5.5,-0.18967122846139245,-0.1184858125327322,tr12-0448
-1.2335032308390383,1.5591208148304312,-0.2428784532736956,1.5591208148304312,1.5591208148304312,0.0,0.0,0.0,,2.792624045669469,107.0,93.0,6.0,-0.18833866870313715,0.011457814421168777,tr12-0448
-1.3765553157843111,1.4586371161951723,-0.20883262141208125,1.4586371161951723,1.4586371161951723,0.04322096810501175,0.025448601878497845,0.016096929271213437,1115.0,2.8351924319794835,74.5,60.5,5.0,-0.17632970274759424,-0.09462483931656898,tr12-0448
-1.3414035419942951,1.4860670491805876,-0.2173460695634497,1.4860670491805876,1.4860670491805876,0.0,0.0,0.0,,2.8274705911748828,105.0,91.0,6.0,-0.17601419881383215,-0.050395934700906524,tr12-0448
-1.2609051314781494,1.536362781247396,-0.2319829382302069,1.536362781247396,1.536362781247396,0.004646501550393034,0.0010427329458002619,0.013914014549872759,1285.0,2.797267912725545,77.0,63.0,6.0,-0.19843875676347555,0.02361319352636282,tr12-0448
-1.4151070589744532,1.4148940515076978,-0.16028139661284801,1.4148940515076978,1.4148940515076978,0.01545772599804035,0.08058583784929081,0.12449385938559493,927.5,2.8300011104821508,90.0,56.33333333333334,15.333333333333336,-0.2098151707644718,-0.14813525685472365,tr12-0448
-1.220528650767673,1.5190437315390348,-0.23546187668662236,1.5190437315390348,1.5190437315390348,0.008215638409918902,0.004087588989743485,0.005232577130118057,1250.0,2.739572382306708,106.5,92.5,6.0,-0.18548896467886494,0.015715320437744956,tr12-0448
-1.4682429835940938,1.3088977678242868,-0.10354315410873452,1.3088977678242868,1.3088977678242868,0.0013650988652177398,0.002125930973508661,0.19477625274688432,1000.0,2.777140751418381,44.0,22.5,5.0,-0.2643497159747483,-0.17354750767544105,tr12-0448
-1.409641927536984,1.3592688024629895,-0.3021868908758795,1.3592688024629895,1.3592688024629895,0.01639539431240689,0.0214152025194918,0.01757477640075314,935.0,2.7689107299999733,44.0,30.0,5.5,-0.27376579796517825,-0.13890371779690552,tr12-0448
-1.3786862896116592,1.4350083722940137,-0.19869767436020366,1.4350083722940137,1.4350083722940137,0.01801983182773237,0.010967307964956818,0.010940204171564258,1075.0,2.8136946619056724,46.0,32.0,6.0,-0.16374657006684462,-0.1094398568279964,tr12-0448
-1.2644968675456651,1.5070215920906755,-0.2398962200742681,1.5070215920906755,1.5070215920906755,0.02055205838407537,0.016743435239476526,0.0008168355471711852,1185.0,2.7715184596363405,103.0,91.0,5.5,-0.2172688499396176,-0.002202193048532528,tr12-0448
-1.312974655914458,1.4796775121367365,-0.2133619276441121,1.4796775121367365,1.4796775121367365,0.01988123799566044,0.03116642173917616,0.0256194345495724,1090.0,2.7926521680511938,75.5,61.5,5.0,-0.17889086163083706,-0.035991886749389884,tr12-0448
-1.2874850624270269,1.5294503413423683,-0.24220554893176105,1.5294503413423683,1.5294503413423683,0.0,0.0,0.0,,2.8169354037693948,50.0,36.0,6.0,-0.1747146700034692,-0.04720879577815185,tr12-0448
-1.3823966707310076,1.4675857162886228,-0.23112944602953014,1.4675857162886228,1.4675857162886228,0.05312425714853963,0.0332042299563704,0.03180653264771925,940.0,2.8499823870196304,74.5,60.5,6.0,-0.20065827718669127,-0.08805512382610994,tr12-0448
-1.3552496595101051,1.4534142772897978,-0.22387764006500516,1.4534142772897978,1.4534142772897978,0.03799687371447191,0.07273027230731642,0.01780565773934295,920.0,2.8086639367999036,107.0,59.0,5.5,-0.15652434940102014,-0.08474858455134822,tr12-0448
-1.2500462204902427,1.5343144607333796,-0.2266259276824993,1.5343144607333796,1.5343144607333796,0.016542989651204487,0.024806354097051564,0.01924873437298986,1260.0,2.7843606812236232,77.0,63.0,6.0,-0.19546640649107955,0.016430783238984878,tr12-0448
-1.266589210141447,1.509508106636328,-0.2458746620554892,1.509508106636328,1.509508106636328,0.0,0.0,0.0,,2.776097316777776,105.0,91.0,6.0,-0.20904392662631247,0.021403752056800986,tr12-0448
-1.2771399831863188,1.5089939247900186,-0.10302034406896926,1.5089939247900186,1.5089939247900186,0.0008141138827406634,0.009644863038444695,0.1395120710614889,1265.0,2.786133907976337,105.0,55.0,5.5,-0.19751129617916374,0.01847354619563651,tr12-0448
-1.2326587652968406,1.540281718639957,-0.25339010056474776,1.540281718639957,1.540281718639957,0.0,0.0,0.0,,2.7729404839367984,104.0,90.0,5.0,-0.21480149385640712,0.05078305093957677,tr12-0448
-1.3570469189647223,1.5223580396373169,-0.1886725131532309,1.5223580396373169,1.5223580396373169,0.0,0.0,0.0,,2.87940495860204,105.0,91.0,5.0,-0.15075128691380274,-0.07176917760439874,tr12-0448
-1.271752865048801,1.5269794180650296,-0.24387633034566544,1.5269794180650296,1.5269794180650296,0.006201232020258463,0.008340630236566282,0.0020206224344142265,1300.0,2.7987322831138304,105.0,91.0,5.5,-0.20066762203734467,0.024983914742984743,tr12-0448
-1.2763258693035782,1.499349061751574,-0.24253241513045815,1.499349061751574,1.499349061751574,0.0,0.0,0.0,,2.7756749310551516,105.0,91.0,6.0,-0.19751129617916374,0.016839508179925692,tr12-0448
-1.266589210141447,1.509508106636328,-0.2458746620554892,1.509508106636328,1.509508106636328,0.0,0.0,0.0,,2.776097316777776,105.0,91.0,6.0,-0.20904392662631247,0.021403752056800986,tr12-0448
-1.2500462204902427,1.5343144607333796,-0.2443765576645924,1.5343144607333796,1.5343144607333796,0.016542989651204487,0.024806354097051564,0.0014981043908967873,1260.0,2.7843606812236232,104.0,92.0,6.0,-0.21917744940873812,0.016430783238984878,tr12-0448
-1.3220452858632932,1.4493467352960736,-0.21105205856779213,1.4493467352960736,1.4493467352960736,0.023217281260544783,0.01872083005115599,0.01213593217439872,1095.0,2.771392021159367,76.0,62.0,5.5,-0.17441480075996954,-0.055360831508604234,tr12-0448
-1.4682429835940938,1.3088977678242868,-0.2861615067052425,1.3088977678242868,1.3088977678242868,0.0013650988652177398,0.002125930973508661,0.012157900150376377,1000.0,2.777140751418381,44.0,30.0,5.0,-0.25222567074692626,-0.17354750767544105,tr12-0448
-1.3654706038913142,1.4695491544828476,-0.1869007362712853,1.4695491544828476,1.4695491544828476,0.0,0.0,0.0,,2.8350197583741616,106.0,92.0,6.0,-0.14076803673136276,-0.08706596617062677,tr12-0448
-1.3808212064903354,1.445192227009766,-0.12674694895379,1.445192227009766,1.445192227009766,0.002707553976807775,0.02332955205662224,0.09092541718315453,1035.0,2.8260134335001017,44.0,24.5,5.5,-0.1908099707782328,-0.12422478865436665,tr12-0448
-1.4944928594738658,1.3761335168977449,-0.3649806070914292,1.3761335168977449,1.3761335168977449,0.0061415527664470115,0.03435398832509029,0.006790845811752322,910.0,2.8706263763716104,44.5,30.5,6.0,-0.33357721278344243,-0.14636111593668227,tr12-0448
-1.4633358670448515,1.3592688024629895,-0.3021868908758795,1.3741705525831662,1.3592688024629895,0.037298545195460935,0.0214152025194918,0.01757477640075314,935.0,2.8226046695078413,60.5,46.5,22.0,-0.27376579796517825,-0.15680252250486887,tr12-0448
-1.2363445491695908,1.5026171497002452,-0.20953954953095574,1.5026171497002452,1.5026171497002452,0.00760025999199887,0.01233899284904627,0.029539834996141164,1200.0,2.7389616988698355,76.5,62.5,5.5,-0.17875754755187262,-0.009505770635217192,tr12-0448
-1.271752865048801,1.5269794180650296,-0.2411306732317003,1.5269794180650296,1.5269794180650296,0.006201232020258463,0.008340630236566282,0.0007250346795509148,1300.0,2.7987322831138304,105.0,90.0,5.5,-0.1968272286023045,0.024983914742984743,tr12-0448
-1.2411363097554715,1.543190231387464,-0.2479504596813927,1.543190231387464,1.543190231387464,0.0,0.0,0.0,,2.784326541142936,105.0,91.0,5.0,-0.20797216682894115,0.0295837847501226,tr12-0448
-1.212313012357754,1.5231313205287784,-0.2302292995565043,1.5231313205287784,1.5231313205287784,0.0,0.0,0.0,,2.7354443328865328,107.0,93.0,6.0,-0.17457827155964847,0.040386894802712736,tr12-0448
-1.3503907731313882,1.4973331643317511,-0.2134007716003216,1.4973331643317511,1.4973331643317511,0.033137987335754904,0.028811385265362862,0.007328789274659436,1140.0,2.84772393746314,75.5,61.5,5.5,-0.17515868814054886,-0.09160580550437823,tr12-0448
-1.496327051719015,1.3560430031777315,-0.2402394630743544,1.3560430031777315,1.3560430031777315,0.02544371691558841,0.03040107799203445,0.1117320781064177,922.5,2.8523700548967468,59.5,36.333333333333336,16.0,-0.28548801865064444,-0.1601042665921237,tr12-0448
-1.3068809837852502,1.5275373364071383,-0.21743285641741888,1.5275373364071383,1.5275373364071383,0.03452255820904493,0.04147028722655066,8.678685396917851e-05,1160.0,2.8344183201923885,105.0,91.0,5.5,-0.1760408451197217,-0.03778698680643835,tr12-0448
-1.3333343476792996,1.4840857180736702,-0.19273569214086786,1.4840857180736702,1.4840857180736702,0.0,0.0,0.0,,2.817420065752969,105.0,91.0,5.0,-0.1548383364586278,-0.07670133839227727,tr12-0448
-1.4873313393342134,1.3348380284980241,-0.3568717328254283,1.3348380284980241,1.3348380284980241,0.02698713715440515,0.006114365144112122,0.013233620550729713,915.0,2.8221693678322373,44.0,30.0,5.5,-0.32842185747810226,-0.1623226866509494,tr12-0448
-1.3835287604671431,1.4685217790663885,-0.22072956087498105,1.4685217790663885,1.4685217790663885,0.0,0.0,0.0,,2.852050539533532,44.0,30.0,5.0,-0.19379302688007755,-0.12492354252951113,tr12-0448
-1.2676642081977,1.5103537106712477,-0.23864933517655346,1.5103537106712477,1.5103537106712477,0.07373933379659514,0.024286661490659944,0.02130326561310372,1125.0,2.7780179188689478,105.0,91.0,6.0,-0.1953702224302505,0.007320465766715165,tr12-0448
-1.220528650767673,1.5190437315390348,-0.2281586097842693,1.5190437315390348,1.5190437315390348,0.008215638409918902,0.004087588989743485,0.012535844032471086,1250.0,2.739572382306708,106.0,89.5,6.0,-0.19639965779808147,0.015715320437744956,tr12-0448
-1.3835287604671431,1.4685217790663885,-0.22072956087498105,1.4685217790663885,1.4685217790663885,0.0,0.0,0.0,,2.852050539533532,44.0,30.0,5.0,-0.19379302688007755,-0.12492354252951113,tr12-0448
-1.2771399831863188,1.5089939247900186,-0.22192428524108115,1.5089939247900186,1.5089939247900186,0.0008141138827406634,0.009644863038444695,0.020608129889377002,1265.0,2.786133907976337,73.5,62.0,5.5,-0.1985086320394459,0.01847354619563651,tr12-0448
-1.3825194255065805,1.4506280398319518,-0.19341268709357348,1.4506280398319518,1.4506280398319518,0.037256858382742515,0.0174395255152775,0.005503439299819918,1030.0,2.8331474653385325,105.0,58.0,5.0,-0.15148140961675444,-0.0936858715464611,tr12-0448
-1.2609051314781494,1.536362781247396,-0.2454227254716863,1.536362781247396,1.536362781247396,0.004646501550393034,0.0010427329458002619,0.00047422730839333243,1285.0,2.797267912725545,105.0,91.0,6.0,-0.20625783817989454,0.02361319352636282,tr12-0448
-1.2779540970690595,1.5186387878284633,-0.2418557079112512,1.5186387878284633,1.5186387878284633,0.0,0.0,0.0,,2.796592884897523,105.0,91.0,5.0,-0.1968272286023045,0.02010758421134733,tr12-0448
-1.2264612458220938,1.5286305611464654,-0.2261886138355363,1.5286305611464654,1.5286305611464654,0.014675063933377919,0.0145596702409988,0.021761845845856432,1280.0,2.7550918069685597,76.5,62.5,5.5,-0.19499232494892715,0.02231274705118556,tr12-0448
-1.2117861818887157,1.5140708909054663,-0.24497219983536805,1.5140708909054663,1.5140708909054663,0.0,0.0,0.0,,2.7258570727941827,106.0,92.0,6.0,-0.20324245436887609,0.01504170935224851,tr12-0448
-1.3786862896116592,1.4350083722940137,-0.19869767436020366,1.4350083722940137,1.4350083722940137,0.01801983182773237,0.010967307964956818,0.010940204171564258,1075.0,2.8136946619056724,46.0,32.0,6.0,-0.16374657006684462,-0.1154577991011758,tr12-0448
-1.2360479236157502,1.5615758656938523,-0.2191557310069071,1.5615758656938523,1.5615758656938523,0.003389158318909735,0.02129414705389521,0.007358028384065088,1290.0,2.7976237893096028,76.5,62.5,5.0,-0.18919550592051534,0.021565795067551543,tr12-0448
-1.2655516330285426,1.535320048301596,-0.24589695278007964,1.535320048301596,1.535320048301596,0.0,0.0,0.0,,2.8008716813301384,105.0,91.0,6.0,-0.20450801547238484,0.029860245274622155,tr12-0448
-1.4636161516903767,1.3554699508484174,-0.15652714915010493,1.3554699508484174,1.3554699508484174,0.004627235373245761,0.030694913893221883,0.17171533446840573,942.5,2.819086102538794,54.5,31.66666666666667,12.666666666666664,-0.2463571548322648,-0.16941846958435516,tr12-0448
-1.2363445491695908,1.5026171497002452,-0.20953954953095574,1.5026171497002452,1.5026171497002452,0.00760025999199887,0.01233899284904627,0.029539834996141164,1200.0,2.7389616988698355,73.5,62.5,5.5,-0.18867569934822032,-0.009505770635217192,tr12-0448
-1.3415846991061262,1.4715736233543044,-0.25358384003815354,1.4715736233543044,1.4715736233543044,0.05409963667909934,0.057876717988063923,0.01137829110639249,980.0,2.8131583224604304,48.5,34.5,5.5,-0.19742299351576995,-0.0809924783022834,tr12-0448
-1.4917205858187716,1.3579946188774819,-0.36457152211446703,1.3579946188774819,1.3579946188774819,0.0033692791113527627,0.016215090304827706,0.007199930788714559,940.0,2.849715204696253,44.5,30.5,6.0,-0.3297299125794198,-0.15857996940108693,tr12-0448
-1.2360479236157502,1.5615758656938523,-0.23995192997786,1.5615758656938523,1.5615758656938523,0.003389158318909735,0.02129414705389521,0.013438170586887774,1290.0,2.7976237893096028,104.5,90.5,5.0,-0.1999241712949764,0.021565795067551543,tr12-0448
-1.2609051314781494,1.536362781247396,-0.1409781646744816,1.536362781247396,1.536362781247396,0.004646501550393034,0.0010427329458002619,0.10491878810559804,1285.0,2.797267912725545,105.0,56.5,6.0,-0.20450801547238484,0.02361319352636282,tr12-0448
-1.2723584255762053,1.569007623633689,-0.21751964327138806,1.569007623633689,1.569007623633689,0.0,0.0,0.0,,2.8413660492098933,105.0,91.0,5.0,-0.17606749142561126,-0.025178038911970176,tr12-0448
-1.2544923173002094,1.5198153901957656,-0.24796125784760295,1.5198153901957656,1.5198153901957656,0.021833552003368784,0.020466328444191717,0.00542884271714479,1265.0,2.774307707495975,104.5,90.5,5.5,-0.20615639501778546,0.03381127955975123,tr12-0448
-1.2763258693035782,1.499349061751574,-0.24253241513045815,1.499349061751574,1.499349061751574,0.0,0.0,0.0,,2.7756749310551516,105.0,91.0,6.0,-0.19751129617916374,0.016839508179925692,tr12-0448
-1.4682429835940938,1.3088977678242868,-0.13403825691696408,1.3088977678242868,1.3088977678242868,0.0013650988652177398,0.002125930973508661,0.16428114993865478,1000.0,2.777140751418381,44.0,23.5,5.0,-0.2643497159747483,-0.17354750767544105,tr12-0448
-1.2771399831863188,1.5089939247900186,-0.21680132238290625,1.5089939247900186,1.5089939247900186,0.0008141138827406634,0.009644863038444695,0.02573109274755193,1265.0,2.786133907976337,105.0,60.5,5.5,-0.19751129617916374,0.01847354619563651,tr12-0448
-1.2771399831863188,1.5089939247900186,-0.22192428524108115,1.5089939247900186,1.5089939247900186,0.0008141138827406634,0.009644863038444695,0.020608129889377002,1265.0,2.786133907976337,76.0,62.0,5.5,-0.19038066226195954,0.01847354619563651,tr12-0448
-0.046076522281109436,0.4671092093975637,-0.3211413657693133,0.4671092093975637,0.4671092093975637,0.0,0.0,0.0,,0.5131857316786731,25.0,11.0,6.0,-0.1102681805130797,-0.015076337392092257,tr12-0241
-0.20790198136838486,0.4873262046650184,-0.36159507881650704,0.4909675635982615,0.4873262046650184,0.15754342814498354,0.005340809966671425,0.04222619674627734,867.5,0.6952281860334034,60.33333333333334,47.0,41.0,-0.12725144046356698,0.0920531248348304,tr12-0241
-0.05816147354116665,0.3724776952951484,-0.3121721378004999,0.3724776952951484,0.3724776952951484,0.0,0.0,0.0,,0.43063916883631503,25.0,11.0,5.0,-0.1139381593721488,-0.015520384571778616,tr12-0241
-0.04399807872337122,0.4800084852550392,-0.3426372116798473,0.4800084852550392,0.4800084852550392,0.004004886888116611,0.0028464416581616137,0.002305884892513155,1035.0,0.5240065639784104,24.5,10.5,5.0,-0.1347653462009375,-0.018087355162647548,tr12-0241
-0.0435089844744723,0.459314380017068,-0.33858353818009645,0.459314380017068,0.459314380017068,0.0009215839713025488,0.03339706329382042,0.011104068282897173,1000.0,0.5028233644915403,25.0,11.0,6.0,-0.12779144828727798,-0.004213803488793592,tr12-0241
-0.03062859500124569,0.4599248195781657,-0.3229248269955425,0.4599248195781657,0.4599248195781657,0.004017781800494268,0.03128607058424124,0.015368864156899753,1035.0,0.4905534145794114,23.0,11.0,5.0,-0.1050332544831427,0.003473753647563671,tr12-0241
-0.04596501261678205,0.4876433622403302,-0.34542926210573466,0.4876433622403302,0.4876433622403302,0.0077022159953924205,0.014473707235081984,0.005408057143420769,1025.0,0.5336083748571123,25.0,11.0,5.0,-0.12820870487738806,-0.007344841202259331,tr12-0241
-0.03861691178270777,0.4365027617174483,-0.3221294270086991,0.4365027617174483,0.4365027617174483,5.28729756997734e-05,0.016921560810023106,0.012085327786640204,1060.0,0.4751196735001561,23.0,11.0,5.5,-0.12424279496475275,0.004840474196182174,tr12-0241
-0.0519284746221548,0.4657456613549097,-0.3476759047577289,0.4657456613549097,0.4657456613549097,0.0005778706091548387,0.002674861310369925,0.0034881160051161157,1055.0,0.5176741359770645,25.0,11.0,5.0,-0.14365636311363472,-0.015561885402703209,tr12-0241
-0.04875671888074065,0.4398550256724596,-0.30850535275177643,0.4398550256724596,0.4398550256724596,0.0011544623516900785,0.010483306388828356,0.01017412550246033,1015.0,0.4886117445532002,24.5,10.5,5.0,-0.11489158584515655,-0.010298743917162113,tr12-0241
-0.04436831657921952,0.4837776269656766,-0.3432586497017092,0.4837776269656766,0.4837776269656766,0.00021687389935841003,0.0052347480959001325,0.0011790799622573569,1045.0,0.5281459435448961,25.0,11.0,5.0,-0.13165234752094698,-0.006128152168376073,tr12-0241
-0.0378592180747616,0.4592723109049074,-0.3281002948920717,0.4592723109049074,0.4592723109049074,0.005256420888356983,0.02277753466058141,0.006856663034463889,1020.0,0.497131528979669,23.0,10.5,5.5,-0.11946756068665615,0.001639737780376504,tr12-0241
-0.045009971504147706,0.4924494141007981,-0.33818166792266363,0.4924494141007981,0.4924494141007981,0.007714645974373772,0.014729880312583071,0.001902779650240771,1040.0,0.5374593856049459,24.5,10.5,5.5,-0.15233965818535405,-0.005866367951958835,tr12-0241
-0.04999112076760158,0.4377746923127335,-0.3217505803002796,0.4377746923127335,0.4377746923127335,0.00047102056787066623,0.004755927794454161,0.009662111183937644,1025.0,0.4877658130803351,25.0,11.0,5.0,-0.10843101176418277,-0.0038687701733851852,tr12-0241
-0.04206471207053677,0.4858242127805242,-0.3421263771587097,0.4858242127805242,0.4858242127805242,0.003635162334904373,0.002953971070501382,0.004787368639794537,1035.0,0.527888924851061,25.0,11.0,5.5,-0.13595835697364445,-0.006307410616263632,tr12-0241
-0.04468685798153933,0.449750595209524,-0.31794945762559057,0.449750595209524,0.449750595209524,0.0041147384512932456,0.01883045297028263,0.012735741977877912,1020.0,0.4944374531910634,24.5,10.5,5.0,-0.11683884858837018,-0.00796157104913132,tr12-0241
-0.049567347425598464,0.4777290903211026,-0.3348651607294085,0.4777290903211026,0.4777290903211026,0.0,0.0,0.0,,0.527296437746701,21.0,11.0,5.0,-0.12696556405222295,0.01476087741793111,tr12-0241
-0.0498507020455855,0.4527204774567228,-0.3287033235424201,0.4527204774567228,0.4527204774567228,0.0,0.0,0.0,,0.5025711795023082,25.0,11.0,5.0,-0.11323598531975985,-0.001913767942542682,tr12-0241
-0.04411915330675818,0.4651562710936832,-0.3228806839965808,0.4651562710936832,0.4651562710936832,0.006455250098874571,0.030288700017929687,0.014695522342516225,1040.0,0.5092754244004414,23.0,11.0,5.0,-0.11235570450467956,0.010065362723684877,tr12-0241
-0.04862312788755041,0.5045711105960015,-0.3585158428436504,0.5045711105960015,0.5045711105960015,0.0003741557901982169,0.00094434454121195,0.013317913302961615,1030.0,0.5531942384835519,24.5,10.5,5.0,-0.14193346796664374,-0.0188928330311414,tr12-0241
